raw data,heart rate
0.142324,82.7744
0.13239,84.5805
0.120332,76.2853
0.116204,76.014
0.115019,76.3524
0.101603,72.1998
0.094499,69.1038
0.0880002,68.8815
0.0766936,69.7334
0.0685986,74.8693
0.062671,74.6304
0.0544659,69.2307
0.057436,67.2383
0.0568749,67.3836
0.0443744,70.547
0.0395137,75.7172
0.0343519,79.923
0.0280594,79.9013
0.0196597,74.1087
0.0182055,69.7634
0.0204473,67.5829
0.0221621,69.923
0.0166981,71.8182
0.0160128,78.0199
0.00924611,81.0997
0.00188309,80.5777
0.00442523,77.0301
0.00795482,69.1268
0.00743843,68.1444
0.00577279,65.4459
0.00715004,68.3899
0.00621544,76.2862
-0.000119235,83.0874
-0.00150962,81.2294
-0.00185113,74.3729
0.0015967,68.9832
0.000894792,69.1128
0.00137482,72.4571
0.00400006,78.1841
0.00423255,78.5092
-0.000522946,74.6006
-0.00315128,72.7418
-0.00155326,73.0414
-0.00172043,75.3576
-0.000419608,80.2867
0.00364094,76.1919
0.00123463,71.0701
0.0048201,71.4089
0.00371504,72.797
-0.00240564,77.759
-0.00545176,83.8554
0.000563296,82.2642
0.0010743,77.3196
-0.000844675,73.6641
-0.000824833,72.7181
0.00372264,74.0066
-0.00209071,77.9073
-0.00127332,77.4736
-0.000298527,74.7019
-0.00240312,71.5484
-0.00435079,71.6278
-0.00419988,74.1473
-0.00858559,76.766
0.000940015,82.5315
-0.00653248,86.5734
-0.00624407,83.1685
0.00326105,76.3732
0.00450474,69.2244
0.00816667,70.3579
0.00712531,72.4996
-0.00218084,78.4567
-0.00454152,75.4571
-0.0056224,72.0739
-0.00639634,70.6436
-0.0034671,70.7163
0.00348666,75.1248
0.0110641,72.8658
0.00987646,68.5399
0.00817421,66.9117
0.010971,69.5845
0.000300985,72.3361
-0.0112164,76.5414
-0.0137128,74.2763
-0.0101042,70.7083
-0.00395375,69.9251
-0.00222281,70.2445
-0.00895973,75.2584
-0.00733691,79.6634
-0.0112736,79.02
-0.00879638,76.3956
-0.00686527,73.6372
-0.00612858,68.9921
-0.0169438,68.8919
-0.0224812,70.0355
-0.0240349,75.3618
-0.016102,80.4339
-0.00920003,75.1308
-0.00526921,67.8594
-0.0106186,66.2941
-0.0192582,65.8086
-0.021799,71.1114
-0.0250345,75.8537
-0.00598201,72.3654
0.00186411,68.0919
0.00417154,67.9369
0.00320972,70.7279
-0.00393033,74.2893
-0.00316583,79.3541
-0.00533545,81.0345
-0.00412432,77.5781
0.00419297,71.3974
0.0181632,69.4108
0.0233866,69.9521
0.0190568,75.5317
0.0148857,79.2641
0.0168632,76.4419
0.0141487,72.8939
0.00172711,69.0871
-0.00373176,69.7197
-0.00255025,74.5531
0.00187454,79.3667
0.00630731,75.8972
0.00832194,69.7004
0.00387416,66.0926
-0.00234146,66.3646
-0.0108086,71.0516
-0.0166703,77.0925
-0.0111854,79.0124
-0.0081064,75.4267
-0.014712,74.2899
-0.0190233,74.1673
-0.0137536,75.2731
-0.00941677,78.612
-0.00277091,77.3835
-0.000444982,72.5036
0.00258405,69.8429
0.00551391,69.7874
0.0149867,74.5599
0.0114291,77.6799
0.0136206,78.5135
0.00991794,74.1284
0.00566938,73.1917
0.0131819,73.029
0.0232395,76.7529
0.0254929,79.7289
0.0194642,78.691
0.027169,75.1816
0.0358297,72.0586
0.0295931,71.1927
0.0231908,71.6337
0.0250425,75.5151
0.0205874,77.7583
0.0132266,74.5869
0.0141281,70.9263
0.0218361,70.3146
0.0313339,69.7383
0.0335576,74.5614
0.0283431,79.5238
0.0258818,79.3729
0.0287583,76.7235
0.0225643,72.6993
0.0236377,70.8484
0.0263068,74.4319
0.0250608,77.1302
0.0224795,76.9752
0.0219512,72.5321
0.024436,69.5337
0.022802,68.7063
0.0199504,69.5752
-0.00338853,73.9809
-0.0134052,78.4834
-0.00477183,76.4271
0.00243259,71.5275
0.00754846,69.7518
0.00231056,69.2192
-0.0014794,71.3943
-0.00221436,74.8831
-0.0151167,75.3824
-0.0223953,69.3115
-0.0272961,68.1824
-0.0348442,68.1308
-0.0317772,72.563
-0.0300773,76.6407
-0.0307211,76.4945
-0.0233567,73.195
-0.0217433,68.5637
-0.0140708,69.4038
-0.00260699,72.9867
-0.00644884,40.8466
-0.0137836,81.498
-0.0140926,74.8169
-0.0117442,67.1885
-0.0133721,66.173
-0.0105594,65.6235
-0.00443659,68.9203
-0.00503416,72.218
-0.0117018,69.4739
-0.0071208,68.2713
-0.000511779,70.9625
0.00602506,76.0751
0.00148912,79.6154
-0.00456816,75.8554
-0.00324265,70.8846
-0.000518396,67.838
0.00037153,68.7785
-0.0046152,73.5621
-0.00673674,69.9592
-0.000649743,64.9948
-0.000430305,64.3464
-0.00882681,67.1303
-0.00447561,71.0745
-0.00954475,79.0827
-0.00930592,80.1027
-0.007803,78.5144
-0.00373981,71.2638
-0.000351638,70.3582
0.00171518,73.3101
-0.00530641,76.7002
-0.00377702,72.9143
-0.00599565,69.265
-0.00548985,70.4882
-0.00371718,72.2273
0.000291601,77.4065
-0.00252814,82.2329
-0.00635366,79.7454
-0.000184499,74.8894
0.00675062,72.0848
0.00700219,75.4817
0.00865519,74.9093
0.00539102,69.2823
0.00254162,66.985
0.00203955,69.803
-0.0045406,76.7127
-0.00442592,76.4783
-0.00588202,73.437
-0.00649486,67.5973
-0.00417495,69.889
-0.0133399,73.8443
-0.0110261,79.0678
-0.00437002,74.5258
-0.0134548,72.5047
-0.0166123,72.3137
-0.0190376,76.0636
-0.0273817,74.744
-0.0295233,70.4796
-0.0251531,70.727
-0.030791,74.4535
-0.0330168,75.7631
-0.0412263,71.363
-0.0526755,66.2801
-0.0586304,68.5809
-0.062167,71.3104
-0.0660345,66.7117
-0.064401,63.3983
-0.0645389,65.5383
-0.067081,69.5153
-0.0724938,67.2323
-0.0839898,62.3919
-0.0795319,61.9805
-0.0681483,66.7459
-0.066792,69.3644
-0.0606929,66.8013
-0.0540098,65.3243
-0.0515442,69.9646
-0.0284791,64.0508
-0.0260192,61.9613
-0.0314773,65.1349
-0.0222922,72.8458
-0.00956069,69.6801
-0.0048636,63.4989
0.00675826,66.6997
0.0352471,72.4267
0.0591493,67.2646
0.0764283,60.3296
0.0963724,62.2184
0.125029,69.3743
0.152096,68.3822
0.184904,62.7028
0.2222,68.0438
0.236346,74.9572
0.236915,69.1476
0.248522,65.4212
0.2558,67.742
0.243371,73.9902
0.23048,70.5079
0.196875,63.1287
0.166794,60.6888
0.167866,63.9721
0.178513,70.8813
0.214529,67.0644
0.242829,62.9945
0.217696,65.2619
0.161049,72.516
0.107264,77.1304
0.055916,70.1208
0.00593014,64.8723
-0.0170701,67.2631
-0.0263013,73.3848
-0.0385401,69.5613
-0.065384,66.6695
-0.108394,78.3714
-0.16298,86.0732
-0.205286,80.8413
-0.241716,79.9879
-0.234485,81.6773
-0.218947,73.2653
-0.216529,66.5428
-0.214991,66.366
-0.209041,69.7771
-0.219428,74.708
-0.223849,68.4971
-0.223937,65.678
-0.225201,69.7047
-0.214692,74.7133
-0.204855,65.3704
-0.191136,61.4182
-0.169621,64.1552
-0.15354,70.3861
-0.130546,67.5173
-0.110945,64.8815
-0.0827032,65.1398
-0.0614555,68.5839
-0.042767,66.935
-0.00812156,61.3128
0.0244256,59.2806
0.0411889,64.9721
0.0516235,60.7576
0.0609762,61.5583
0.0612215,65.9121
0.0567922,71.2429
0.0564871,65.0809
0.060686,59.1652
0.0584369,60.3975
0.0548041,63.9098
0.0653656,58.4845
0.0780224,58.4242
0.0774339,63.3465
0.0654083,59.6222
0.0576659,61.2207
0.0634493,68.2628
0.0596313,72.369
0.0471926,64.1069
0.0382759,59.144
0.025925,62.3399
0.0225994,69.6844
0.0111416,59.9746
0.0172755,58.0867
0.0206022,59.602
0.0169038,66.1554
0.0105376,60.1211
0.0179969,61.7538
0.0243797,70.5251
0.0191527,78.0916
0.00861244,69.118
0.00439556,
0.0106949,
0.0101805,
0.00526592,
0.0155188,
0.0155197,
0.00363829,
0.00591769,
0.00389932,
-0.00760474,
-0.0119348,
-0.0123353,
0.000573113,
0.00364292,
0.0018855,
-0.000496221,
0.00555616,
0.00434216,
0.000713882,
-0.00290343,
-0.0121754,
-0.00930244,
-0.0122482,
-0.0150257,
-0.00452733,
0.00435863,
0.0101758,
0.0104967,
0.0077492,
0.00727363,
0.000169786,
0.00488616,
0.00799127,
0.0174147,
0.0059696,
-0.0101615,
-0.00897028,
0.00501178,
0.00265541,
0.00596855,
0.0047555,
0.00597408,
0.0089762,
-0.0017744,
-0.00588845,
-0.0137238,
-0.0142773,
-0.00107685,
0.000469736,
0.00266029,
-0.000331967,
-0.00786067,
0.00531828,
0.00683858,
-0.00427157,
-0.00665178,
-0.0020829,
-0.00529188,
-0.000743987,
-0.0049462,
-0.00462929,
-0.000441115,
-0.0012827,
0.00482064,
0.0151173,
0.0150425,
-0.00301038,
-0.0142821,
-0.00809277,
2.18E-05,
-0.00644533,
-0.00629542,
-0.00357476,
0.00139235,
0.00310313,
-0.00685816,
-0.00907302,
-0.00127668,
-0.00175643,
0.00259481,
0.000448217,
-0.00366605,
-0.00537971,
-0.00598848,
-0.00306609,
-0.00243953,
-0.00718476,
-0.00678429,
-0.0114346,
0.00685919,
0.01217,
0.0035255,
-0.00354018,
-0.00902838,
-0.00355436,
-0.00265469,
-0.0116708,
-0.0090805,
-0.0031379,
-0.00759889,
-0.00822311,
-0.00420163,
-0.00200749,
-0.00940806,
-0.0123238,
-0.00832635,
-0.00146017,
-0.00272791,
-0.00840563,
-0.0116943,
-0.0151806,
-0.0195089,
-0.0193355,
-0.00640365,
-0.00304164,
0.00321545,
-0.00105957,
0.000320705,
0.000888094,
0.00825356,
0.0104472,
0.00812153,
-0.00486727,
-0.00521061,
0.00515515,
0.00406529,
0.00948818,
0.0170601,
0.0101182,
0.00339437,
0.00805994,
0.0103649,
0.0198623,
0.0151959,
0.00769869,
0.00368678,
0.000899363,
0.00144487,
0.00888807,
0.0101254,
0.0087216,
0.0155233,
0.0253562,
0.0181579,
0.0203105,
0.0148259,
0.0135216,
0.0118703,
0.00906662,
0.0130439,
0.0200836,
0.0209654,
0.0192529,
0.0198043,
0.0130751,
0.0162222,
0.0266594,
0.0238376,
0.0169836,
0.0217974,
0.0209656,
0.0214492,
0.019366,
0.021029,
0.0204518,
0.0210339,
0.0224521,
0.0229266,
0.019868,
0.0220143,
0.0243476,
0.0179658,
0.0161366,
0.0306706,
0.0295226,
0.0193236,
0.0288742,
0.027584,
0.0203019,
0.020453,
0.0199391,
0.0177813,
0.0204446,
0.024198,
0.0238538,
0.0182695,
0.00549271,
-0.00121718,
-0.00268027,
0.0124202,
0.00782361,
0.0110291,
0.00794636,
0.00228588,
-0.00159429,
-0.00289612,
-0.010531,
-0.00945953,
-0.00859238,
-0.0173253,
-0.0207793,
-0.0239799,
-0.0245078,
-0.0233416,
-0.023401,
-0.0216178,
-0.016703,
-0.0167532,
-0.0175652,
-0.0118609,
-0.010324,
-0.0233142,
-0.0183066,
-0.0024233,
-0.00349973,
-0.0171674,
-0.0241692,
-0.0222397,
-0.0180132,
-0.00776727,
-0.00169582,
0.00230615,
-0.0111334,
-0.0112654,
-0.00326645,
-0.0139975,
-0.0241985,
-0.0260993,
-0.0221244,
-0.0100052,
-0.0148217,
-0.0237862,
-0.0284803,
-0.0164398,
-0.00821305,
-0.00946029,
-0.00723159,
-0.00848172,
-0.00916124,
-0.00311694,
0.00496191,
0.00310374,
-0.000596557,
-0.00645922,
-0.00460953,
-0.00556316,
-0.000254876,
0.00290302,
-0.000779965,
0.00180643,
0.00192558,
-0.00365726,
-0.00798194,
-0.00263211,
-0.000229167,
3.69E-05,
-0.00264219,
-0.00697143,
-0.00243165,
-0.0032634,
-0.00331718,
-0.00275483,
-0.0138753,
-0.0135376,
-0.00675843,
-0.00421878,
-0.00138775,
0.00367631,
0.00741293,
0.00270149,
0.000222351,
-0.00665953,
-0.0130894,
-0.00175191,
0.00340272,
-0.00749686,
-0.0172968,
-0.00690114,
-0.00689484,
-0.00837693,
-0.00131355,
-0.00366683,
0.00139397,
0.00140902,
0.00220498,
0.00167908,
-0.0030805,
-0.00721786,
-0.00717164,
-0.0087664,
-0.00585147,
-0.00716424,
-0.00477389,
0.00698483,
0.0130633,
0.0029441,
-0.00751249,
-0.0056827,
-0.007748,
-0.0107943,
-0.00543459,
-0.000244541,
0.0112499,
0.00768861,
0.00638789,
0.0109088,
0.00604039,
-0.00449463,
-0.00435107,
-0.000163245,
-0.00099292,
-0.00619229,
-0.00815504,
-0.00348237,
0.000543873,
0.00521868,
0.0119988,
0.0098804,
-0.00437282,
-0.00616282,
-0.00827364,
-0.00520286,
-0.00487969,
-0.00293449,
0.00581149,
0.00825059,
0.00503043,
-0.000126663,
0.00135646,
-0.00573162,
-0.00585522,
-0.00241238,
0.00686275,
0.00983345,
0.00569085,
0.00301205,
0.00163548,
0.000590397,
0.00165713,
-0.00293183,
0.000740828,
0.0015092,
0.00082986,
0.00129215,
0.00224885,
0.00240539,
-0.00293119,
-0.00227119,
-0.00192593,
-0.00513205,
-0.00250372,
-0.00277981,
-0.00191488,
0.00802027,
0.00453135,
0.00315331,
0.00776954,
0.00834624,
0.00213175,
-0.00245955,
0.00266301,
0.000992371,
-0.00116097,
0.00267531,
0.00796927,
0.0085707,
-0.00280338,
0.00168051,
-0.00387065,
-0.0110426,
-0.00883159,
-0.00759524,
-0.00701035,
0.00133767,
0.00029484,
-0.000267647,
0.000297371,
-0.0012467,
-0.00975465,
-0.00726353,
0.00493223,
0.0132395,
0.0105381,
0.0031399,
-0.0167224,
-0.0194339,
-0.0075833,
0.00766398,
0.00964037,
0.00967438,
0.0105177,
0.00440329,
7.04E-05,
-0.00199491,
-0.00599955,
-0.00288067,
0.00121281,
-0.00310461,
0.00115934,
0.00380995,
0.00112556,
0.00119785,
0.000628736,
-0.00559817,
-0.00453648,
0.00171025,
0.00165247,
0.00160158,
0.0044706,
0.00443387,
0.00440436,
0.00244025,
0.00291093,
0.00257994,
-0.00227469,
-0.00226693,
0.00373604,
0.00165532,
-0.00252149,
-0.00167397,
0.0020941,
-0.000603269,
-0.00555865,
-0.00532811,
-0.000235447,
0.00907182,
0.0044688,
-0.00223149,
0.00288765,
0.0044521,
0.00537412,
0.00274004,
0.000918297,
-0.00284322,
-0.00806025,
-0.00453905,
0.000922096,
0.00217202,
0.00309265,
0.0111259,
0.0104105,
0.00401856,
-0.00255041,
-0.00849013,
-0.00571227,
-0.00473874,
0.00219486,
-0.00417228,
-0.0015115,
0.00337692,
-0.00488412,
-0.00752622,
-0.000183519,
-0.00486788,
-0.014624,
-0.0184506,
-0.0111722,
-0.00816484,
-0.00506144,
-0.00510045,
-0.00779788,
-0.00700539,
-0.0113004,
-0.016152,
-0.015734,
-0.0103691,
-0.00523456,
-0.00194669,
-0.0106982,
-0.0162746,
-0.0301624,
-0.023067,
-0.0161839,
-0.00643408,
-0.00384619,
-0.00728276,
-0.0118841,
-0.010525,
-0.00465712,
0.00637168,
0.0026612,
0.00136943,
0.00945899,
0.0130165,
0.0120453,
0.0170673,
0.016757,
0.0200172,
0.0116381,
0.0102311,
0.00851546,
0.0118323,
0.0124146,
0.0177072,
0.00910054,
0.00326353,
0.0065082,
-0.000745469,
-0.0116994,
-0.0163186,
-0.014439,
-0.0198131,
-0.0262883,
-0.0243128,
-0.0177658,
-0.0061566,
-0.00582387,
0.00362915,
0.00473221,
0.00574613,
-0.00173605,
-0.00249416,
0.00590786,
0.0155493,
0.0253061,
0.0224028,
0.0248105,
0.029948,
0.0332917,
0.0356576,
0.0347862,
0.0373176,
0.0343556,
0.0263886,
0.0207009,
0.0271645,
0.030729,
0.0326871,
0.0291517,
0.026915,
0.0245148,
0.0266372,
0.0251824,
0.0321166,
0.0265537,
0.0238562,
0.0261159,
0.0150338,
-0.00438645,
-0.0120918,
-0.00388829,
0.00435126,
0.00533103,
0.005187,
0.00196418,
-0.00321726,
-0.0115021,
-0.0267856,
-0.0354848,
-0.0324309,
-0.0307405,
-0.0237865,
-0.0220943,
-0.0248605,
-0.0212472,
-0.0199964,
-0.0201399,
-0.0108364,
-0.0100494,
-0.0148656,
-0.0225327,
-0.0207497,
-0.016958,
-0.0105071,
0.000872447,
0.00229673,
0.000728858,
-0.00269363,
-0.00440564,
-0.00116564,
-0.00963687,
-0.0103952,
-0.0076434,
0.0025069,
0.00128805,
-0.0012627,
0.00214054,
0.00794087,
0.00594614,
0.00683949,
0.0101376,
0.00192516,
0.00405017,
-0.00549483,
-0.0152195,
-0.0110447,
0.0029839,
0.00210611,
0.00897687,
0.0020719,
-0.00744442,
-0.0101882,
-0.00761848,
-0.00459303,
0.00212118,
-0.00576639,
-0.00916476,
-0.00872652,
-0.00769416,
-0.00364693,
-0.00565456,
-0.00531029,
-0.00165221,
0.000131309,
-0.000779651,
-0.00164565,
-0.00377377,
-0.00507349,
-0.00167491,
-0.00281676,
-0.00527756,
-0.0158695,
-0.0200437,
-0.0173303,
-0.0177779,
-0.0186501,
-0.0199609,
-0.0265779,
-0.0375415,
-0.0460643,
-0.0516681,
-0.0551667,
-0.0554291,
-0.0634578,
-0.069376,
-0.0668632,
-0.0651298,
-0.0643193,
-0.0739565,
-0.0804199,
-0.0704065,
-0.0634592,
-0.0516051,
-0.0480659,
-0.0594236,
-0.0424132,
-0.0359736,
-0.030978,
-0.0305951,
-0.0226182,
-0.00649048,
0.0130052,
0.0445174,
0.0638426,
0.0691071,
0.0878868,
0.107297,
0.142119,
0.192726,
0.220485,
0.23951,
0.245133,
0.254849,
0.251349,
0.25146,
0.245296,
0.21487,
0.178108,
0.183189,
0.200766,
0.232876,
0.255331,
0.227267,
0.159596,
0.102874,
0.0461543,
-0.00209308,
-0.0295172,
-0.0338019,
-0.0406269,
-0.0674175,
-0.123829,
-0.187307,
-0.230765,
-0.251703,
-0.244543,
-0.227645,
-0.228102,
-0.225095,
-0.218184,
-0.220352,
-0.228549,
-0.226122,
-0.227153,
-0.218365,
-0.206539,
-0.197476,
-0.17253,
-0.143151,
-0.115922,
-0.0925703,
-0.0649436,
-0.0493225,
-0.0270296,
0.00653525,
0.0334796,
0.0509611,
0.0530615,
0.0403347,
0.0487718,
0.0496305,
0.061904,
0.063477,
0.0650812,
0.0722649,
0.0734178,
0.0695473,
0.0579336,
0.0505785,
0.0509019,
0.0568169,
0.0515061,
0.0412891,
0.0400878,
0.033986,
0.0275129,
0.0200167,
0.0156976,
0.0121193,
0.0131549,
0.0158795,
0.0159109,
0.017443,
0.0104284,
0.0113593,
0.0132631,
0.00544532,
0.00925376,
0.00493263,
0.00994702,
0.0017915,
-0.000772708,
-0.00115382,
-0.0056721,
-0.00203688,
0.0113628,
0.00458239,
-0.000537203,
-0.000440801,
-0.000473045,
9.65E-06,
-0.00109962,
-0.00801101,
-0.0142536,
-0.00607404,
0.00163823,
0.0134131,
0.0164652,
0.0125739,
0.00562223,
0.00224454,
-0.00290004,
-0.00188254,
-0.000691139,
-0.000944691,
0.00140183,
0.00667137,
0.00434438,
0.000731284,
-0.00109414,
0.00145636,
0.00611614,
0.00722014,
0.00185435,
0.0063621,
0.00439769,
-0.00306912,
-0.00179871,
-0.0058712,
-0.00865277,
-0.00270045,
-0.00791994,
-0.0052166,
-0.00527187,
-0.00193711,
0.000417606,
-0.000473953,
-0.00364143,
-0.00568703,
-0.00709675,
0.00151488,
0.00558293,
-0.00492639,
-0.00784329,
-0.00494841,
-0.000611698,
0.00273879,
0.0112517,
0.00777267,
0.0101017,
0.00593891,
-0.00099466,
-0.00940557,
-0.00812896,
-0.0016973,
-0.00354356,
-0.00331222,
0.000937252,
-0.00422824,
-0.00699674,
0.00136902,
0.000477455,
-0.00740716,
-0.00383777,
-0.00677832,
-0.0104041,
-0.0173053,
-0.0179348,
-0.00840967,
-0.00329475,
-0.00954906,
-0.00645904,
-0.00632371,
-0.00299366,
0.000132833,
0.000628571,
0.00982179,
0.00246789,
-0.0101047,
-0.00831418,
-0.00186952,
-0.00242141,
-0.00301036,
-0.00897565,
-0.00947377,
-0.000781502,
0.000757901,
-0.00323591,
-0.00693566,
-0.00402851,
0.00225071,
-0.00654446,
-0.00532885,
-0.00235356,
-0.00360397,
-0.00422288,
-0.00517872,
-0.0142365,
-0.00598663,
0.00112569,
0.00791269,
0.00725727,
0.00288488,
-0.00811378,
-0.00550661,
2.97E-05,
0.00299686,
0.0135942,
0.014834,
0.00477871,
-0.00119379,
-0.00469728,
0.00349696,
0.0110946,
-0.00148062,
0.00477624,
0.0096416,
0.010531,
0.00421289,
0.00800753,
0.0107538,
0.0220045,
0.0186234,
0.012105,
0.00763306,
0.0063453,
0.0108361,
0.0123717,
0.0120903,
0.0129096,
0.0120839,
0.0122073,
0.0194345,
0.0201769,
0.0202655,
0.0201905,
0.0209278,
0.0198929,
0.0149868,
0.0149526,
0.0176908,
0.0198071,
0.0243802,
0.0251024,
0.0245661,
0.0224508,
0.0221574,
0.024659,
0.0318993,
0.0296388,
0.0235421,
0.0204062,
0.0283222,
0.0317537,
0.0365249,
0.031144,
0.0233757,
0.0209842,
0.0233182,
0.026327,
0.0274159,
0.0236659,
0.0196013,
0.0212021,
0.0279749,
0.0238901,
0.0147642,
0.00786983,
0.0116117,
0.0143276,
0.0161684,
0.0148571,
0.0102204,
0.0135743,
-0.000661781,
-0.0106533,
-0.00670263,
-0.00209166,
-0.0010398,
0.002267,
-0.00286336,
-0.00123037,
-0.00902761,
-0.0110538,
-0.00990822,
-0.00883692,
-0.0151311,
-0.0208698,
-0.026708,
-0.0227816,
-0.0223669,
-0.017055,
-0.0207683,
-0.024449,
-0.0258358,
-0.02299,
-0.0246531,
-0.0141592,
-0.0148131,
-0.0101094,
-0.0144516,
-0.0260596,
-0.0240575,
-0.0136231,
-0.00284676,
-0.00758622,
-0.020234,
-0.0215307,
-0.00839948,
-0.0195147,
-0.0131225,
-0.0121995,
-0.0126973,
-0.00733066,
-0.00127496,
-0.0142699,
-0.0196109,
-0.011145,
-0.0155704,
-0.0158917,
-0.0122672,
-0.00971021,
-0.016632,
-0.01717,
-0.0108351,
-0.0100845,
-0.00585229,
-0.00266621,
-0.007805,
-0.00993744,
-0.00792747,
-0.00549397,
-0.00311938,
-0.00258092,
0.00567193,
0.00351712,
-0.00256988,
-0.00643743,
-0.00290504,
0.00123238,
-0.0016294,
-0.00355938,
-0.0058509,
-0.00866467,
-0.00407019,
0.000974787,
0.000159734,
0.00335671,
0.00296037,
0.00220774,
-0.00213727,
-0.00910326,
-0.0114076,
-0.00872605,
-0.0112533,
-0.0147812,
-0.00684832,
0.00235092,
0.00310781,
0.000278149,
-0.00435689,
-0.0077214,
-0.00965227,
-0.00480784,
-0.00354359,
-0.00278331,
-0.0017163,
0.00030629,
0.0011823,
-0.00264692,
-0.00486861,
-0.00127381,
0.00231308,
-9.43E-05,
0.00364233,
0.00996371,
0.0153106,
0.00155903,
-0.00361789,
-0.00653099,
-0.000868734,
0.00608683,
0.00850995,
0.0044586,
0.00105297,
-0.000412595,
-0.00754433,
-0.00707283,
-0.00174956,
0.00696859,
0.00564958,
-0.00263225,
-0.0034746,
-0.00237984,
0.000166418,
-0.00392722,
-0.0088349,
-0.0118054,
-0.0142948,
-0.00384193,
0.00725483,
0.00605004,
0.00306324,
-0.00299929,
-0.00711996,
-0.00120637,
0.00163455,
-0.00069983,
-0.000278863,
0.00856251,
0.01029,
0.00263903,
-0.00225234,
0.00176621,
0.00514773,
0.00837842,
0.00595678,
-0.00114571,
-0.00289539,
-0.00398497,
-0.000854108,
0.00552627,
0.0135378,
0.0124997,
0.00338272,
-0.00248573,
-0.00429695,
-0.00642081,
-0.00319395,
0.00214643,
-0.00367017,
-0.00672734,
0.00268382,
0.00757075,
0.00663812,
-0.00189485,
-0.0005515,
0.00257621,
-0.00270738,
-0.00410391,
0.00210823,
0.000231485,
0.00434455,
0.000530146,
0.00270534,
0.00650085,
0.00139806,
-0.00354046,
-0.00232676,
2.30E-05,
-0.00587663,
-0.00934439,
-0.0126451,
-0.00396472,
-0.0040161,
0.00467893,
0.0114407,
0.015623,
0.00994443,
-0.0044612,
-0.013514,
-0.00831269,
0.0033759,
0.0026187,
0.00608451,
0.00843352,
0.0112844,
0.0125336,
0.00230967,
-0.00304283,
0.000359649,
0.00215978,
0.00624086,
0.00871829,
0.00603104,
-0.00182191,
0.000370055,
0.00192512,
0.00494569,
0.00570835,
0.000165955,
-0.000516936,
-0.00459502,
-0.00818598,
-0.00546554,
0.00243204,
0.00288282,
0.000902094,
-0.00286412,
-0.0082552,
-0.0138158,
-0.00611532,
0.00400292,
0.0107123,
0.0017132,
-0.00438494,
-0.00839188,
-0.00173137,
0.00167894,
-0.00333994,
-0.00999181,
-0.0105095,
0.00352135,
0.00588415,
0.00208025,
0.00311304,
0.000728363,
-0.000705567,
-0.00329377,
-0.0034775,
0.00375828,
0.00222907,
0.00342263,
-0.00738945,
-0.0125703,
-0.00726764,
-0.00653391,
-1.49E-05,
0.00840272,
0.00949201,
0.00341194,
-0.00870753,
-0.012952,
-0.0098097,
-0.0122291,
-0.0203745,
-0.0111064,
-0.00416962,
-0.00571479,
-0.00635695,
-0.0072294,
-0.0081704,
0.00182472,
-0.00960853,
-0.0246678,
-0.0271683,
-0.0180788,
-0.0161681,
-0.0113997,
-0.0113757,
-0.0117226,
-0.0132451,
-0.0143203,
-0.013325,
-0.00345751,
-0.00186652,
-0.00336857,
0.00725291,
0.00475759,
-7.69E-06,
0.00186168,
0.0100458,
0.0196934,
0.019803,
0.0168505,
0.0211949,
0.0143896,
0.0116478,
0.0149124,
0.0220806,
0.0206922,
0.00654006,
0.00389867,
0.0012787,
-0.00131934,
-0.00292376,
-0.0138905,
-0.0214338,
-0.0155186,
-0.0160472,
-0.0184856,
-0.0199174,
-0.0180729,
-0.00971079,
-0.00631533,
-0.00351123,
0.0101978,
0.00633726,
0.000935526,
-0.00211572,
0.00754853,
0.0215215,
0.032691,
0.0239116,
0.0199507,
0.0148283,
0.0232776,
0.0351102,
0.0373857,
0.0314036,
0.0320562,
0.0383756,
0.0332102,
0.0269178,
0.0251623,
0.0180709,
0.0223092,
0.0212054,
0.0262443,
0.0283578,
0.0230078,
0.017954,
0.0156151,
0.0180852,
0.0251921,
0.0158874,
0.00585688,
0.00674037,
0.00946347,
0.00478988,
-0.00259963,
-0.00608226,
-0.00388981,
0.00153873,
-0.00129755,
-0.0104674,
-0.0209643,
-0.0209844,
-0.0233206,
-0.0270101,
-0.0254252,
-0.0156592,
-0.0145478,
-0.0191827,
-0.0159744,
-0.0126934,
-0.0161389,
-0.01725,
-0.0145709,
-0.0176496,
-0.0106264,
-0.00693188,
-0.0102864,
-0.00612359,
-0.00706338,
-0.0106756,
-0.00660034,
-0.000498222,
-0.00466469,
-0.00890111,
-0.00171417,
0.00541005,
-0.00451668,
-0.00867318,
0.00297732,
0.0021185,
-0.00574427,
-0.00976545,
-0.00719101,
-0.010317,
-0.0094313,
-0.00970994,
-0.00354497,
0.00162142,
0.00320157,
-0.00236348,
0.00127171,
0.0105475,
-0.00204672,
-0.00867696,
-0.00254739,
-0.00194588,
-0.00234331,
0.000626974,
0.00356321,
0.0007973,
0.000253821,
-0.000176784,
0.00111706,
0.00137667,
-0.00458497,
-0.00998065,
-0.00414028,
0.00240597,
0.00268722,
0.00575258,
0.00511499,
-0.0188213,
-0.0303076,
-0.0266087,
-0.0208485,
-0.0148229,
-0.00450217,
-0.00656983,
-0.0118165,
-0.0267289,
-0.0441991,
-0.0506445,
-0.045912,
-0.0486183,
-0.0576342,
-0.0609855,
-0.0633623,
-0.0563433,
-0.0609555,
-0.0616488,
-0.0703789,
-0.0766031,
-0.0700972,
-0.0679808,
-0.058887,
-0.0443902,
-0.0530849,
-0.0637186,
-0.0404698,
-0.026485,
-0.0161974,
-0.00824488,
-0.0121056,
-0.015086,
0.00715935,
0.0333405,
0.059967,
0.0707622,
0.0797076,
0.110167,
0.149248,
0.190204,
0.216733,
0.236312,
0.241361,
0.260215,
0.258898,
0.260708,
0.243299,
0.213927,
0.173043,
0.172059,
0.18875,
0.223048,
0.256752,
0.230066,
0.167817,
0.113441,
0.0579321,
0.0207654,
-0.0175889,
-0.0447813,
-0.0567161,
-0.0793956,
-0.146264,
-0.19949,
-0.23011,
-0.234817,
-0.232307,
-0.219742,
-0.22826,
-0.230408,
-0.221702,
-0.222083,
-0.235136,
-0.22754,
-0.222765,
-0.213197,
-0.204809,
-0.192881,
-0.177219,
-0.14726,
-0.121243,
-0.0939327,
-0.0655929,
-0.0520179,
-0.0350152,
-0.0135438,
0.0215298,
0.0474594,
0.0549298,
0.0545289,
0.0490747,
0.0554614,
0.0648489,
0.0580362,
0.0559512,
0.0610687,
0.0671197,
0.0688013,
0.0714862,
0.074878,
0.0778661,
0.0710822,
0.055834,
0.0449146,
0.0346071,
0.0262074,
0.0258631,
0.024022,
0.0201915,
0.0129062,
0.0129977,
0.01301,
0.0114736,
0.00238726,
0.00693619,
0.00940889,
0.0016998,
0.00839266,
0.0131294,
0.0155732,
0.0132843,
0.00366171,
-0.00375783,
-0.00412977,
-0.00345122,
0.00215291,
0.0157493,
0.0138657,
0.00199754,
0.0029564,
0.0115583,
0.0158231,
-0.00480579,
-0.00680095,
0.00530278,
0.00269682,
-0.00216119,
0.000597448,
-0.00359421,
-0.00130678,
-0.00160464,
-0.00432781,
-0.0049468,
-0.000226531,
0.00465323,
-0.00115105,
-0.00469418,
-0.00128394,
-0.00678004,
-0.00483843,
-0.00128523,
-0.00178458,
0.00240209,
0.00269797,
-0.0101209,
-0.00741107,
-0.00147097,
-0.00379005,
0.00391852,
0.0049869,
0.00524125,
0.00241632,
-0.00704778,
-0.000980504,
0.00330283,
0.00175663,
0.00376686,
0.00269851,
0.000655095,
0.00168198,
-0.00182715,
0.00372063,
0.00473118,
-9.08E-05,
-0.00718612,
-0.00182927,
-0.00230776,
0.00319076,
0.000748071,
0.000558192,
-0.00239663,
0.00952165,
-0.00851415,
-0.00973707,
-0.00822708,
-0.00382333,
0.00492973,
-0.00122619,
-0.0145242,
-0.00810163,
-0.00995532,
-0.0102144,
-0.00111162,
3.69E-05,
-0.00256161,
0.0016111,
-0.00298071,
0.00211092,
0.00830881,
0.00153371,
-0.00866691,
-0.00238863,
-0.00358217,
-0.00982045,
-0.00330282,
-0.00490531,
-0.00265303,
0.00992677,
0.0130909,
0.00424978,
0.00541172,
-0.00996315,
-0.0316799,
-0.0252693,
-0.01452,
-0.00121196,
0.00672557,
0.00896932,
0.00746176,
-0.00168027,
-0.0100409,
-0.0113077,
-0.0150274,
-0.00873763,
0.00222284,
-0.00560899,
-0.00245481,
0.0120114,
-0.00250282,
-0.00359592,
-0.00388743,
-0.00693434,
0.00506777,
0.00153719,
-0.00328149,
-0.00452946,
0.00297591,
0.00564543,
-0.00428414,
-0.00188686,
0.00151404,
0.00624697,
0.00584368,
0.00322192,
0.00324143,
0.00849638,
0.0136514,
0.0145039,
0.0133243,
0.00752824,
0.00391724,
-0.00122603,
0.0186427,
0.0112579,
0.00769472,
0.0145925,
0.0190094,
0.0191694,
0.0234917,
0.015474,
0.0192324,
0.0174553,
0.00804284,
0.0167293,
0.016817,
0.00151276,
0.0072315,
0.0174705,
0.0155651,
0.0146271,
0.0204856,
0.0169617,
0.0249343,
0.0279007,
0.0150217,
0.00976537,
0.0187698,
0.0248841,
0.0232561,
0.0201995,
0.0157163,
0.0106174,
0.0197922,
0.0319136,
0.0254589,
0.0327935,
0.0338498,
0.0317011,
0.0247271,
0.0244145,
0.0257432,
0.0159245,
0.0273187,
0.0259362,
0.0276294,
0.0236522,
0.0206314,
0.019691,
0.0232489,
0.0227182,
0.0307109,
0.0201905,
0.0129925,
0.0214037,
0.00786831,
0.000370092,
-0.0192279,
-0.0156596,
-0.0120785,
-0.0122187,
-0.00913353,
-0.00105431,
-0.00401308,
-0.00377976,
-0.00716132,
-0.0162712,
-0.0252928,
-0.0421642,
-0.0304822,
-0.0218105,
-0.018907,
-0.00381485,
0.00646847,
-0.00473016,
-0.0231743,
-0.028154,
-0.0167597,
-0.00889892,
-0.0100761,
-0.0126874,
-0.0100994,
-0.0110518,
-0.0221805,
-0.0239046,
-0.0215646,
-0.00949648,
-0.0171522,
-0.0118418,
-0.0175149,
-0.0192821,
-0.0221584,
-0.016918,
-0.0186088,
-0.00991317,
-0.0149409,
-0.0149173,
-0.0224623,
-0.0310996,
-0.0220542,
-0.00438505,
0.00540498,
-0.00595029,
-0.0183806,
-0.0144048,
-0.00372863,
-0.00900393,
-0.0172806,
-0.00654607,
-0.00495441,
-0.0123398,
-0.00976465,
-0.00369823,
0.0110416,
0.00371133,
-0.0209927,
-0.0164609,
0.00517286,
0.000541834,
-0.0015459,
-0.00853175,
-0.00131765,
3.21E-05,
-0.00108195,
0.00197697,
-0.000498979,
-0.00559532,
-0.00117358,
-0.00147325,
-0.0071405,
-0.00344805,
0.00507384,
-0.00422982,
-0.00934987,
-0.00963839,
-0.00363841,
0.00622315,
-0.00626926,
0.00160707,
-0.00105643,
-0.00535894,
-0.000457675,
-0.0020495,
-0.00317547,
-0.0035115,
-0.00111523,
0.00708858,
0.00685968,
0.00321534,
-0.00157819,
-0.0109185,
-0.00360554,
-0.00488336,
-0.0209005,
-0.0157303,
-0.00183238,
0.00558256,
0.00732484,
0.00485209,
0.00399129,
0.0037727,
-0.00567391,
-0.0120485,
-0.0113041,
0.000929673,
0.0141352,
0.0101889,
0.00381811,
-0.0101548,
-0.000981875,
0.0112711,
0.00815662,
0.0107126,
0.0118192,
-0.00729511,
0.00224164,
0.000620209,
-0.00924641,
-0.00502608,
0.00340968,
-0.00691869,
-0.000409453,
0.0124184,
0.00259744,
-0.000258259,
-0.00197488,
-0.00174371,
-0.00733288,
-0.00870957,
0.00593915,
0.00877855,
0.00709042,
-0.00300955,
-0.007281,
0.0039853,
0.0087805,
-0.00228171,
0.0013837,
0.00828674,
-0.00163934,
-0.00347332,
0.00116644,
0.00515952,
0.00316564,
-0.0175994,
-0.0081019,
-0.00216345,
-0.00609502,
0.00615787,
0.00498128,
0.00396913,
0.000856316,
-0.0122862,
-0.00907999,
0.00772433,
0.00721837,
0.00251063,
0.00606227,
-0.000412727,
0.00590362,
0.00122304,
-0.00296455,
-0.00520257,
-0.00452006,
0.000539323,
0.00479689,
0.00954693,
0.0126852,
0.00531074,
-0.000925651,
0.00190481,
-0.000439483,
-0.00682664,
-0.00350231,
0.0126073,
0.00978304,
-0.000809851,
-0.0049315,
0.000815664,
-0.00298829,
-0.00161768,
-0.0021933,
-0.00584822,
-0.00497663,
0.00495272,
0.00015156,
-0.0120974,
-0.0217602,
-0.0210682,
-0.0119624,
0.0147826,
0.0182259,
0.0113151,
-0.000931671,
-0.00119731,
-0.0113269,
-0.0206383,
-0.00728341,
0.00446523,
0.00522291,
0.0207213,
0.0153594,
0.0129266,
0.00937788,
0.0142613,
0.0152781,
0.00902995,
-0.00626367,
0.00208579,
0.00980353,
0.00119142,
-0.0020668,
-0.0121093,
-0.000294145,
0.0102362,
0.00977059,
0.00170607,
-0.000527132,
-0.010362,
-0.0159863,
-0.0120609,
-0.00554542,
0.00372119,
0.00230657,
-0.00898067,
-0.00424857,
0.00339465,
-0.00320473,
-0.014337,
-0.00135871,
0.00676349,
-3.37E-06,
-0.00159238,
0.00814631,
0.00817555,
0.00270319,
0.00677944,
-0.00192765,
0.00732914,
-0.000890332,
-0.0005321,
-0.0121485,
-0.00240368,
0.00992985,
0.0130379,
0.0130691,
0.00112195,
-0.00306185,
-0.000778034,
-0.00206111,
-0.006265,
-0.00190122,
0.003585,
0.0074415,
-0.000204182,
-0.0149836,
-0.0116524,
0.000402815,
0.00499907,
-0.00385138,
-0.016277,
-0.014962,
-0.0117192,
0.00591272,
-0.00219827,
-0.0158227,
-0.0134363,
-0.009764,
-0.0103063,
0.00969799,
0.0201506,
0.00972528,
-0.00927744,
-0.00254867,
0.0163196,
0.0110795,
0.00406447,
0.00385232,
0.00397092,
-0.00124295,
0.00811599,
0.0129525,
0.00663173,
-0.0016221,
0.00777184,
0.00455153,
-0.00481047,
-0.00251379,
0.00108388,
-0.00324239,
-0.002871,
-0.000877561,
-0.00114689,
-0.00432724,
-0.0180254,
-0.00372761,
0.0107311,
-0.00167539,
-0.0144083,
-0.0046508,
-0.00654936,
0.00659664,
0.00161179,
0.00196011,
0.00861158,
0.00748622,
0.00845438,
-0.00385873,
-0.0132718,
0.00303143,
0.0105801,
0.00678314,
-0.00366832,
-0.0181872,
-0.00926513,
-0.000693156,
0.0264599,
0.0131246,
-0.0198262,
-0.0277312,
-0.00201629,
0.000190586,
0.000571435,
-0.00573133,
-0.00205215,
-0.00587083,
-0.00553806,
-0.00655794,
-0.00699023,
-0.0120147,
-0.0132173,
-0.0123786,
-0.00286382,
-0.00425363,
-0.0374228,
-0.0261496,
-0.000208329,
-0.000377141,
0.00894856,
-0.00783011,
-0.0199626,
-0.0253414,
-0.0191079,
-0.0268264,
-0.0240568,
-0.00561638,
0.00568166,
0.00611955,
0.010104,
0.012137,
0.0127076,
0.00583168,
0.00785699,
0.0145788,
0.0271325,
0.0199515,
0.0121332,
0.0167872,
0.0187032,
0.0165874,
0.00704268,
-0.00200077,
-0.00471629,
-0.0114599,
-0.0029733,
-0.00110184,
0.00143811,
-0.016551,
-0.0201125,
-0.00956733,
-0.0195435,
-0.0222033,
-0.0274141,
-0.00102587,
0.00453444,
-0.0108895,
0.00433102,
0.0181606,
0.0249418,
0.00704252,
0.00703019,
0.0135841,
0.0137652,
0.0292654,
0.0371121,
0.0151415,
0.0206468,
0.0316252,
0.0255879,
0.0336104,
0.029966,
0.0187037,
0.0171412,
0.00764085,
0.0143156,
0.0217914,
0.0211666,
0.0213395,
0.0109789,
0.00221792,
0.0214292,
0.033005,
0.0168719,
0.0176866,
0.03447,
0.0393788,
0.0217229,
0.00981184,
0.00525343,
0.00431476,
-0.0114636,
-0.00471087,
0.0151756,
0.028118,
0.0161424,
-0.00635963,
-0.0138298,
-0.0124278,
-0.0232006,
-0.0226924,
-0.0499118,
-0.0432102,
-0.0199098,
-0.00768916,
-0.00250754,
-0.00485464,
-0.00631874,
-0.0337655,
-0.0142126,
-0.00980214,
-0.0346131,
-0.0299013,
-0.0186447,
-0.0123309,
-0.00674951,
-0.00513397,
-0.00262583,
-0.00278132,
-0.00349252,
0.000423397,
-0.00818281,
0.0105028,
0.0119821,
0.00564534,
-0.012549,
-0.00602419,
-0.0103786,
-0.0155757,
-0.00413517,
0.0165014,
0.0191492,
0.0144906,
-0.00103344,
0.00316335,
-0.0124045,
0.0126244,
0.00121986,
-0.0168431,
-0.00256566,
0.00375511,
-0.0245849,
-0.0243144,
-0.00530878,
0.00507893,
0.00376898,
0.00143625,
0.00325285,
0.00128218,
0.00134216,
-0.00984559,
-0.013033,
-0.00677377,
-0.0171329,
-0.0127276,
0.00578252,
0.00601909,
-0.0029691,
-0.00711712,
-0.0177672,
-0.0210168,
-0.00814187,
-0.0110368,
-0.0253463,
-0.0365194,
-0.0366393,
-0.0300866,
-0.0482658,
-0.0389149,
-0.0303597,
-0.0557783,
-0.0506026,
-0.0560962,
-0.0513775,
-0.0731719,
-0.0703285,
-0.0760042,
-0.0631516,
-0.0519723,
-0.0430823,
-0.0591011,
-0.0525726,
-0.0558168,
-0.066033,
-0.0459472,
-0.032722,
-0.0250021,
-0.0133379,
-0.00154768,
-0.0154566,
0.00196624,
0.0342823,
0.0467654,
0.0516177,
0.0710715,
0.10826,
0.13427,
0.190902,
0.210715,
0.226757,
0.226595,
0.228208,
0.232417,
0.253461,
0.211872,
0.177541,
0.163707,
0.171947,
0.194282,
0.231301,
0.258985,
0.224016,
0.153661,
0.113532,
0.0703581,
0.019025,
-0.0185612,
-0.0318239,
-0.0373736,
-0.0625007,
-0.121386,
-0.172052,
-0.206663,
-0.192781,
-0.207193,
-0.194628,
-0.198847,
-0.221038,
-0.196196,
-0.196694,
-0.212691,
-0.213456,
-0.225377,
-0.219645,
-0.207741,
-0.189321,
-0.16646,
-0.140742,
-0.117787,
-0.0936637,
-0.0611975,
-0.0386172,
-0.0276419,
-0.0184985,
-0.00610536,
0.00992644,
0.0374297,
0.0552691,
0.0478096,
0.0447251,
0.0551345,
0.0595098,
0.0705226,
0.0704167,
0.0624689,
0.0580428,
0.0549037,
0.0503271,
0.0699031,
0.0595988,
0.0474234,
0.0565272,
0.0270396,
0.0180294,
0.0298193,
0.0334387,
0.0243504,
0.00643037,
-0.00350074,
0.00441781,
0.00848963,
0.021325,
0.0137827,
-0.00524965,
-0.000182396,
0.00583099,
0.0037165,
-0.00750792,
0.000305234,
-0.00117342,
-0.00127214,
0.00356123,
0.0155851,
0.00679692,
0.00551082,
0.00961811,
0.000504389,
0.00130726,
-0.00367367,
-0.00408418,
0.000882531,
0.00280944,
0.0178775,
0.00886476,
0.00813526,
0.0109945,
-0.00197808,
0.00352333,
-0.00146977,
0.00747694,
0.0102953,
0.00083399,
0.00417448,
0.00526485,
0.00442669,
0.00651268,
0.00164914,
0.00261817,
-0.00207225,
0.00650937,
-0.0103159,
-0.0237451,
-0.00869722,
0.00181299,
0.00875451,
-0.00195347,
-0.0060386,
-0.00544437,
0.0109939,
-0.0013893,
-0.0107151,
-0.0122914,
-0.0148576,
-0.00563003,
0.00357762,
0.0113086,
-0.00930071,
0.00502411,
0.000880088,
-0.0089484,
-0.0110296,
-0.00827631,
-0.00667602,
-0.00363939,
0.0137798,
0.0072285,
-0.00193215,
-0.0104658,
0.00428322,
0.00816895,
0.0123571,
-0.0105017,
-0.00943245,
-0.0104901,
-0.00849684,
0.00188663,
0.00124019,
0.00833482,
0.00925239,
0.000108054,
-0.00615304,
0.000825075,
0.0022695,
-0.0225345,
-0.0103134,
-0.0194876,
-0.00555509,
-0.0190066,
-0.0140456,
-0.00361838,
0.00418337,
0.017451,
0.0151469,
-0.00450875,
-0.0287314,
-0.0214331,
-0.00170907,
0.0100511,
-0.00864581,
-0.0192842,
-0.00487139,
0.00692121,
0.0130199,
-0.00842093,
0.00781627,
0.00250401,
0.0139966,
0.00216239,
-0.012607,
-0.0170403,
-0.0104884,
-0.0115597,
-0.00115699,
-0.000801174,
-0.00757739,
-0.0119357,
0.00263256,
0.0150922,
0.00149544,
0.00311078,
-0.00239108,
-0.0175964,
-0.0028545,
0.0101198,
0.00692731,
0.00197411,
-0.00133772,
0.00994177,
0.0134844,
-0.00737406,
0.00303915,
0.00880265,
0.00312403,
0.00202862,
-0.00548334,
0.00713236,
0.00557296,
0.0120134,
0.0198234,
0.0102357,
-0.0089773,
0.0151064,
0.0172752,
0.0117743,
0.00864154,
0.0188857,
0.00868922,
0.0211025,
0.0214986,
0.00907269,
0.0165178,
0.0155181,
0.0117414,
0.00972245,
0.0201455,
0.0279642,
0.0173226,
0.0118509,
0.013332,
0.012545,
0.0138617,
0.019065,
0.0292901,
0.0358005,
0.0266232,
0.0185901,
0.00409694,
0.0166433,
0.0107569,
0.0108746,
0.0124656,
0.0239452,
0.0402967,
0.0364362,
0.0172176,
0.0209926,
0.0229997,
0.00575921,
0.0139326,
0.0306864,
0.023004,
0.0306903,
0.0309226,
0.0185169,
0.00819322,
0.0255135,
0.012051,
0.0145658,
0.0175143,
-0.00160622,
0.0277518,
0.0251506,
0.0166347,
0.00979971,
0.0154778,
-0.00954945,
-0.0175536,
0.0110359,
-0.0121493,
0.00317988,
0.00749398,
-0.0111924,
-0.00660648,
-0.0276298,
-0.0302544,
-0.0026759,
-0.000247429,
-0.023786,
-0.00678813,
-0.00946029,
-0.0127132,
-0.0204365,
-0.025515,
-0.0268205,
-0.014324,
-0.0165104,
-0.0191422,
-0.0154251,
-0.0150707,
-0.00189801,
-0.00390425,
-0.0152644,
-0.0209288,
-0.0176611,
-0.0201872,
-0.0175021,
-0.0131653,
-0.0121921,
-0.0137722,
-0.0201694,
-0.0129337,
-0.0134245,
-0.00869334,
-0.0078005,
-0.0143038,
-0.0254498,
-0.00984151,
0.000320039,
-0.00774685,
-0.00604339,
-0.0202973,
-0.0136093,
-0.0196366,
-0.0267247,
0.010279,
0.00188699,
-0.0138684,
-0.0042953,
-0.0079055,
-0.00738062,
0.00391718,
0.00640975,
-0.0178628,
-0.018893,
-0.0104333,
-0.00769259,
0.00195448,
-0.0151493,
-0.0093204,
0.00860158,
-0.0010284,
-0.00762245,
-0.01312,
0.0019006,
0.00896013,
-0.0034289,
0.00357412,
0.00165147,
-0.010975,
-0.0116479,
-0.00489651,
-0.00269467,
0.000137504,
0.00521952,
0.0065649,
-0.00051837,
0.00597904,
-0.00080543,
-0.00549759,
-0.0055077,
0.0083888,
0.0107854,
0.0152758,
-0.00403207,
-0.0178474,
-0.0035143,
-0.0136264,
-0.0163038,
0.0238938,
0.01958,
-0.0140335,
-0.026942,
-0.00943545,
0.00822456,
-0.00228133,
-0.000334196,
0.00646051,
-0.00293426,
-0.0139535,
-0.000218979,
0.00363908,
0.00862552,
0.00810615,
-0.00342043,
-0.00410682,
0.00103113,
0.00390284,
-0.00228762,
0.00285074,
0.00653437,
-0.00596222,
0.00452386,
-0.00181612,
-0.00669501,
-0.00719927,
0.00282113,
0.0086405,
0.0170561,
-0.0149777,
-0.0010447,
0.0158093,
-0.00762328,
-0.00839148,
-0.00559082,
-0.00941639,
0.00537678,
-0.00183006,
0.0179965,
0.0281213,
-0.00317405,
-0.00161143,
0.0057835,
0.00234196,
-0.00271257,
-0.00501146,
0.00434503,
-0.00393454,
-0.00784247,
0.00152096,
-0.00481203,
-0.00305358,
-0.00534135,
0.00531589,
0.0171043,
-0.00120919,
0.00491091,
-0.00887619,
-0.0110142,
-0.00781435,
-0.00218912,
0.00909842,
0.00938069,
-0.0045781,
-0.0175653,
0.000358153,
0.000159823,
-0.0192918,
-0.00426869,
0.0240312,
0.00718989,
-0.0132016,
-0.00364337,
0.00544249,
0.015514,
0.00165109,
-0.00879605,
-0.00951501,
0.000628028,
0.0088496,
0.0224326,
0.015647,
-0.00697575,
0.0097474,
0.0143553,
0.00102174,
0.00130242,
0.0190804,
0.0160016,
-0.00259491,
-0.0103326,
-0.0106113,
-0.00197626,
0.0196166,
0.00804466,
-0.0103159,
-0.0152386,
-0.00672519,
0.00583661,
0.00885166,
-0.0114369,
-0.00777715,
-0.00217882,
0.0144192,
-0.00442863,
-0.00273093,
-0.0010405,
-0.0275158,
-0.0109533,
0.00738081,
0.0142167,
-0.0103501,
-0.00385437,
-0.00578135,
0.0215751,
0.00118602,
0.00603602,
0.000362153,
2.43E-05,
-0.00695182,
-0.0149014,
-0.0107154,
0.0023704,
0.00331947,
0.0157594,
0.00797282,
-0.00466593,
-0.0126084,
0.000328519,
-0.01505,
0.000161247,
0.0192611,
0.0136062,
0.00293935,
0.00036841,
0.00314198,
0.00559571,
0.00141779,
-0.000977377,
-0.0168023,
-9.88E-05,
0.0132067,
0.00628325,
0.0102008,
0.00715741,
-0.0130428,
-0.0101057,
0.000917967,
0.00449215,
0.00838393,
-0.0144323,
-0.00391916,
0.00254106,
-0.00832164,
-0.0151461,
-0.0180943,
-0.00599974,
-0.0125224,
-0.00157439,
0.00629254,
0.00622407,
0.00453193,
0.015781,
0.0113285,
-0.00413232,
-0.00211936,
0.00345059,
-0.00684145,
-0.00775025,
-0.00332138,
-0.0024553,
0.0137816,
0.0182023,
0.00400978,
-0.00128581,
0.00263878,
-0.0078437,
0.00788477,
0.0113088,
0.00695885,
0.000821983,
-0.00758791,
-0.0244208,
-0.0199012,
-0.0212163,
-0.0155823,
0.00849016,
0.0187973,
0.00465828,
-0.0106238,
0.00321254,
0.00328333,
-0.0165608,
-0.0145683,
0.0154106,
0.021915,
0.00332693,
-0.0189921,
-0.00345218,
-0.000866839,
-0.0021735,
0.00266132,
0.0147706,
-0.0069498,
0.00967512,
0.00315098,
-0.0108252,
0.0085268,
0.00618537,
-0.00490375,
-0.0137369,
-0.00655943,
-0.00101126,
-0.00421365,
0.0142559,
-0.00693619,
-0.0140645,
-0.0069685,
0.000918739,
-0.00869075,
0.00611462,
0.00649465,
0.0112195,
-0.000426636,
0.0037579,
-0.00924165,
-0.0200081,
-0.00524062,
-0.00280877,
0.000393231,
0.00323043,
0.00294964,
-0.00142216,
-0.00681224,
-0.00626389,
-0.0106213,
-0.0135746,
-0.0125361,
-0.0181874,
0.00669077,
0.00691489,
-0.00796756,
-0.0190228,
-0.0107151,
-0.0131435,
-0.0214522,
-0.00877659,
-0.00165446,
-0.00429128,
-0.00568044,
-0.0124542,
-0.0184602,
-0.0198113,
-0.00647107,
-0.0075647,
0.00943867,
0.00360055,
-0.00419957,
-0.00716113,
0.00410562,
0.0137454,
-0.001865,
0.00194233,
0.0020295,
0.0115078,
0.00901907,
0.0243426,
0.00812382,
-0.0100201,
0.000174967,
0.0113628,
0.00121363,
0.0109958,
0.0235579,
0.0199686,
-0.004948,
-0.0214132,
-0.0187438,
-0.0061609,
0.00339232,
0.00571166,
-0.00502511,
-0.0102041,
-0.00383366,
0.00454268,
0.00149782,
0.0032192,
0.00890265,
0.0162877,
0.0253796,
0.00608387,
0.00161367,
0.0166673,
0.0310217,
0.0297938,
0.0168724,
0.0188017,
0.0077516,
0.0194898,
0.0158283,
0.0176457,
0.0087613,
0.00374104,
0.0124571,
0.0137101,
0.0295077,
0.0415618,
0.0304505,
0.0235195,
0.0207643,
0.0200764,
0.0204788,
0.0221269,
0.0305153,
0.0226568,
0.00760512,
0.0214386,
0.00443347,
-0.00992177,
0.00749161,
0.0231652,
0.0225243,
0.00652974,
-0.00783678,
-0.0123318,
-0.0191019,
-0.0192554,
-0.0186268,
-0.0128545,
-0.02622,
-0.0273354,
-0.0226796,
-0.0226147,
-0.0276307,
-0.0241377,
-0.0113294,
-0.00328708,
-0.0119874,
-0.00992052,
-0.00792922,
0.00547653,
0.00456704,
-0.00321245,
0.000426098,
-0.0151007,
-0.0185582,
-0.00800194,
0.0105828,
-0.00244897,
-0.0106836,
-0.00198142,
0.00505003,
0.00183644,
0.000193612,
-0.00521642,
-0.00872752,
-0.00467367,
-0.0040572,
0.00364238,
-0.00455278,
-0.0236247,
-0.0127916,
-0.0010197,
-0.0112876,
0.00106957,
0.00514305,
0.0035221,
0.00122302,
-0.0114645,
-0.00638356,
0.00351811,
-0.000857034,
-0.00381427,
-0.0072986,
-0.00694439,
0.00889556,
0.0177222,
-0.00814263,
-0.00478393,
0.00222224,
-0.0135102,
-0.00684043,
0.00798074,
-0.00158458,
-0.00706629,
-0.00880024,
-0.0123014,
-0.0198486,
-0.02563,
-0.0170371,
0.00300289,
-0.00112607,
-0.01811,
-0.0270868,
-0.0381023,
-0.0335292,
-0.0287513,
-0.0425497,
-0.0532463,
-0.0482235,
-0.055965,
-0.0539764,
-0.0386938,
-0.0491103,
-0.05641,
-0.0612255,
-0.0703346,
-0.0744901,
-0.0642786,
-0.0552033,
-0.0438297,
-0.0430629,
-0.0476796,
-0.0484066,
-0.0348342,
-0.024869,
-0.0195849,
-0.0215098,
-0.0132649,
0.000359198,
0.0181325,
0.03753,
0.0516561,
0.069958,
0.0916843,
0.114947,
0.125232,
0.158347,
0.200898,
0.207765,
0.206321,
0.221664,
0.222566,
0.239124,
0.220188,
0.204089,
0.168463,
0.158743,
0.151575,
0.193183,
0.22071,
0.219681,
0.161209,
0.104112,
0.0707924,
0.0106662,
-0.0350986,
-0.0426502,
-0.0475278,
-0.0619661,
-0.111144,
-0.175734,
-0.215043,
-0.212809,
-0.195487,
-0.202629,
-0.196268,
-0.184547,
-0.179323,
-0.196974,
-0.189948,
-0.202602,
-0.189629,
-0.185172,
-0.185984,
-0.174081,
-0.162382,
-0.135157,
-0.109517,
-0.0850926,
-0.0509912,
-0.033212,
-0.0289465,
-0.0114335,
0.0134002,
0.0171344,
0.0268553,
0.0325895,
0.0340717,
0.0360506,
0.0319447,
0.047858,
0.0715378,
0.0499474,
0.0376607,
0.046687,
0.0620062,
0.0689176,
0.0633967,
0.0606726,
0.0562274,
0.0340498,
0.0318519,
0.0400887,
0.0297936,
0.0221634,
0.0197827,
0.0140683,
0.00663029,
0.00911077,
0.00499296,
0.0133613,
0.0115482,
0.00536772,
0.00872481,
0.0063959,
0.0140666,
0.00421506,
0.00709228,
-0.00660257,
-0.0113103,
0.00299364,
0.00668681,
0.00736777,
-0.000148552,
0.00986245,
0.0150634,
-0.000732948,
0.000984233,
0.00758901,
0.00516134,
-0.00872867,
-0.00883806,
-0.0126459,
0.000560249,
0.00245945,
0.0113372,
0.000491088,
0.00536059,
0.0154262,
0.00754613,
-0.00209768,
-0.00670911,
-0.00353784,
-0.0077964,
0.00414108,
0.00929415,
0.00830902,
0.0147779,
0.00135079,
-0.0020359,
0.00251253,
-0.0107361,
0.00530806,
0.0156885,
0.00454423,
0.00262038,
-0.00837155,
-0.0127364,
-0.0078869,
0.00261467,
0.0129406,
0.000433277,
-0.0203447,
-0.00861453,
-0.00030337,
0.0050729,
-0.000416469,
-0.00884298,
-0.0177801,
-0.0073237,
0.00326825,
-0.0109259,
-0.00961133,
-0.00120299,
0.00183864,
-0.0042081,
-0.0104422,
-0.00148961,
-0.00243274,
-0.00793059,
-0.0105383,
0.00447114,
0.0053805,
0.00546036,
0.00244588,
-0.00592785,
0.00153912,
0.00316244,
0.00994673,
-0.00545654,
-0.0014577,
0.000582053,
0.000500712,
-0.0114117,
-0.00262832,
-0.00778085,
0.00549543,
0.005967,
-0.00199778,
-0.00399737,
-0.00682969,
0.00261203,
0.00247986,
-0.00803663,
-0.00385555,
-0.0149162,
-0.0135474,
0.00769383,
0.000258166,
0.00880897,
0.00729126,
-0.0177273,
-0.0146242,
-0.00476105,
-0.0111172,
-0.00812382,
0.00988358,
0.000507056,
-0.0212024,
-0.0167286,
-0.0109913,
-0.0117561,
0.00557697,
0.00249564,
0.00230595,
0.00128908,
-0.0110702,
-0.0111415,
0.00205032,
-0.00110495,
-0.000536277,
-0.0098325,
-0.0150717,
0.00802508,
0.00654542,
0.00832865,
0.0117616,
0.014422,
0.00725271,
0.00547045,
-0.00710247,
0.0067591,
0.0174456,
0.0103972,
0.0119963,
0.019658,
-0.00334832,
0.0149946,
0.0154618,
0.0122978,
0.00421159,
0.0127296,
0.0262035,
0.0158313,
0.000549723,
0.00398864,
0.023238,
0.0272299,
0.0154817,
0.00790084,
0.000606354,
0.00719452,
0.00598335,
0.00846542,
0.0067141,
0.0293757,
0.0245068,
0.0260939,
0.0179573,
0.00608775,
-0.000449599,
0.0153401,
0.0120318,
0.0145497,
0.0172325,
0.0348087,
0.0260148,
0.0191723,
0.0186522,
0.0226757,
0.0142518,
0.0289831,
0.0357987,
0.023532,
0.0258422,
0.0205573,
0.0113973,
0.011791,
0.0264281,
0.0266612,
0.0231664,
0.0172331,
0.0151668,
0.0201976,
0.0340986,
0.0408417,
0.0274726,
0.0137259,
-0.00429118,
-0.00733025,
0.00379002,
0.0120681,
0.00681341,
-0.00259807,
0.00631745,
0.011865,
-0.00150104,
-0.00806016,
0.00140182,
1.19E-05,
-0.00900306,
-0.0102786,
-0.0128862,
-0.0249257,
-0.0255298,
-0.00758602,
-0.0109114,
-0.0222432,
-0.00469168,
-0.00114714,
-0.00142038,
-0.0145791,
-0.00793919,
-0.0151652,
-0.0254187,
-0.0163713,
-0.00987275,
-0.00770588,
-0.0148896,
-0.0179942,
-0.0099007,
-0.0163406,
-0.0182188,
-0.0242743,
-0.026901,
-0.0241562,
-0.0145826,
-0.011125,
-0.0110306,
-0.00798608,
-0.026425,
-0.0355975,
-0.0143014,
-0.00606501,
-0.0087812,
-0.0154879,
-0.0176046,
-0.0178785,
-0.00449244,
-0.00155472,
-0.000970061,
0.00503312,
0.00755819,
-0.00941197,
-0.0214378,
-0.0184826,
-0.00394138,
0.0034172,
-0.0108065,
-0.00453474,
0.00330137,
0.0177208,
0.0131571,
-0.0120061,
-0.018443,
-0.0129489,
-0.0165599,
0.00422346,
-0.00950278,
-0.00142188,
0.00306014,
0.00459136,
0.011102,
-0.0115528,
-0.016119,
-0.00615602,
-0.00334811,
-0.018537,
-0.0114269,
0.00940608,
-0.000539512,
-0.00339512,
0.00391514,
-0.00530892,
-0.0111611,
0.00270456,
0.0120158,
-0.00636677,
-0.0157065,
-0.00548257,
-0.0172822,
-0.00886638,
-0.000784609,
0.00243439,
0.00548613,
0.00416566,
0.00413946,
0.00330632,
0.000535907,
-0.00578765,
0.00521362,
0.00538394,
-0.00155269,
0.00204465,
0.00290771,
0.00605441,
-0.00324044,
-0.00571869,
0.0057405,
0.0175438,
0.0225707,
0.00771261,
0.010189,
0.00637192,
-0.00471099,
0.00493459,
0.00294124,
-0.00195464,
-0.00101686,
0.00591371,
0.00799184,
0.00667101,
0.00421374,
-0.00391422,
-0.0126994,
-0.00547657,
-0.0108923,
-0.013414,
-0.00268772,
-0.00460829,
-0.0012154,
0.00554677,
-0.00422851,
-0.0163022,
-0.00365073,
-0.00673201,
-0.0177793,
-0.0261126,
0.00742972,
0.00597992,
-0.00586416,
-0.00933011,
-0.00716828,
-0.00665991,
-0.0087748,
-0.000241747,
0.00712745,
0.00087384,
0.00640615,
-0.000385848,
-0.0164253,
-0.00125332,
-0.00972695,
-0.00818386,
-0.00147654,
0.00440977,
0.00429895,
0.00531373,
-0.00338603,
0.00263781,
-0.0130237,
-0.00214389,
0.00954865,
0.00797694,
0.0133712,
-0.00210124,
-0.0120609,
-0.00420742,
0.00835243,
0.00862803,
0.00163705,
-0.00129172,
0.0111704,
0.011837,
-0.00252793,
-0.00117692,
0.00682792,
0.00125828,
-0.011251,
0.000856297,
0.0175133,
0.0133128,
0.00686451,
-0.00539223,
-0.0043624,
-0.00833303,
-0.00694781,
0.0129006,
0.0177134,
0.000854895,
0.00245769,
-0.0040185,
-0.00530447,
-0.0156415,
0.0051029,
0.00999852,
-0.00402981,
-0.00720628,
0.00305802,
0.00572531,
0.0046792,
0.00623079,
-0.0011098,
-0.0055293,
-0.00282026,
-0.00123592,
-0.00449831,
0.00308977,
0.00874401,
-0.0050129,
0.00713064,
0.00471788,
0.00376973,
0.00412439,
0.00497274,
0.00129816,
-0.0030155,
0.00335968,
-0.0111326,
-0.000533366,
0.0063521,
-0.00115676,
0.00606895,
0.00262241,
-0.00486145,
-0.00392193,
0.00220448,
-0.00120844,
-0.000729006,
0.00137724,
0.00689042,
0.00480635,
-0.00972979,
-0.00321979,
-0.00851455,
0.000925503,
0.0118305,
0.017889,
0.00680213,
-0.00314394,
-0.00207799,
0.000937387,
-0.0051024,
0.00326718,
0.00436084,
0.00270922,
-0.00298285,
-0.0110977,
0.00377073,
0.0183187,
0.0045494,
-0.0129404,
-0.00210971,
0.00855893,
0.00174913,
-0.0129923,
0.00446678,
-0.00769257,
-0.00707267,
0.000823357,
0.00579941,
0.00332333,
-0.00304562,
-0.00715897,
-0.0012499,
-0.00376754,
-0.0030611,
0.0118729,
0.0117432,
0.000756697,
0.00302518,
-0.00944779,
-0.0182142,
-0.0101661,
0.00822322,
-0.00204631,
-0.00391614,
-0.0108176,
-0.00430191,
-0.0109082,
-0.00749453,
-0.00247516,
-0.00458792,
0.0104422,
0.00863241,
-0.000306585,
0.000618087,
0.00234517,
-0.0130871,
-0.00683912,
0.00296541,
0.00321949,
0.00185352,
0.000648423,
0.00170865,
0.00584396,
0.00463983,
-0.0020652,
0.00482469,
0.010907,
0.00760483,
0.00430397,
-0.00304162,
0.000455663,
-0.00996437,
-0.00921934,
-0.0113891,
0.00440087,
0.0197011,
0.00263031,
-0.00748908,
-0.00305286,
-0.0068804,
-0.017679,
0.00387329,
0.00404774,
0.00323231,
0.00983965,
-0.00315778,
0.00517974,
-0.00544531,
-0.00720131,
-0.00543118,
-0.00806714,
-0.0024893,
0.00207558,
-0.0128233,
-0.00689347,
-0.00376395,
0.00335985,
-0.00138306,
-0.00423908,
-0.00310589,
-0.0156238,
-0.0163867,
-0.0134866,
-0.0129109,
-0.0178961,
-0.0190553,
-0.0023085,
0.00127505,
-0.00765538,
-0.00239597,
-0.00657073,
-0.0166164,
-0.018127,
-0.023074,
-0.0131672,
-0.00329052,
-0.000722057,
-0.000117271,
0.000308166,
-0.00688561,
0.00727251,
0.00588986,
-0.00374765,
-0.00318829,
0.010484,
0.0165581,
0.0150367,
0.0203244,
0.0131658,
0.0160563,
0.0061795,
0.00505948,
0.0169045,
0.0167938,
0.0120102,
0.0129111,
-0.00623351,
-0.0161322,
-0.0103111,
0.00119752,
-0.0110574,
-0.00953028,
-0.00862159,
-0.00800509,
-0.0275824,
-0.0137852,
0.0157514,
-0.0129229,
-0.0230971,
0.00254975,
0.0157992,
0.0148773,
0.00917658,
0.00711871,
0.0015901,
0.0105604,
0.0136462,
0.031406,
0.0423232,
0.0387979,
0.0197027,
0.00705096,
0.0124986,
0.0263395,
0.0323938,
0.0232193,
0.0154852,
0.025698,
0.0244043,
0.0251957,
0.0254804,
0.0205614,
0.0186873,
0.0172634,
0.0112665,
0.0201088,
0.0164334,
0.010427,
0.0273254,
0.0198654,
0.0108548,
0.00254865,
-0.00749077,
0.00321988,
-0.00222654,
-0.00506851,
0.00811536,
0.0143357,
-0.00243791,
-0.021177,
-0.0221473,
-0.0215394,
-0.020008,
-0.024518,
-0.027146,
-0.0133325,
-0.013829,
-0.0176348,
-0.0232963,
-0.0156038,
-0.0134923,
-0.0213317,
0.00214374,
0.0103286,
-0.00292551,
-0.0186831,
-0.0217303,
-0.0183761,
0.00578501,
0.0112701,
-0.00531601,
-0.0138703,
-0.00937268,
-0.0133429,
-0.00603485,
0.00397796,
0.0111965,
0.0112543,
0.00431599,
-0.00508467,
-0.00367553,
0.00579448,
-0.000461346,
-0.00496404,
-0.0146708,
-0.0161488,
0.000635956,
0.00315692,
0.0103481,
0.00327577,
0.00475717,
-0.0141754,
-0.0185682,
-0.0116592,
0.00493142,
0.0137242,
-0.00373184,
-0.00455589,
0.000567652,
0.00224835,
-0.0147307,
-0.0133169,
-0.00257923,
0.00695617,
-0.000739799,
-0.0106263,
-0.00960514,
-0.00221829,
0.00116581,
-0.00512906,
0.0063947,
0.00141618,
-0.0116637,
-0.00987992,
-0.023347,
-0.0252161,
-0.0205185,
-0.0160647,
-0.0186647,
-0.025256,
-0.0337457,
-0.0404209,
-0.0459362,
-0.0457654,
-0.0476782,
-0.0521596,
-0.0582342,
-0.0561849,
-0.0684937,
-0.0760494,
-0.0704167,
-0.0732557,
-0.0646322,
-0.0661973,
-0.0571983,
-0.0445506,
-0.0434187,
-0.0524562,
-0.0335787,
-0.0187693,
-0.0272243,
-0.0145394,
0.00786046,
0.00977953,
0.0205743,
0.0462972,
0.0664596,
0.0824167,
0.0932547,
0.115209,
0.150431,
0.197992,
0.203551,
0.220539,
0.244443,
0.243555,
0.23503,
0.227435,
0.196964,
0.16592,
0.147051,
0.153415,
0.173955,
0.223006,
0.23609,
0.176877,
0.120046,
0.0758637,
0.0364661,
0.00353574,
-0.034517,
-0.0517383,
-0.0600414,
-0.0842837,
-0.139934,
-0.194555,
-0.229299,
-0.2101,
-0.203864,
-0.197549,
-0.204318,
-0.204799,
-0.188188,
-0.194645,
-0.206713,
-0.204171,
-0.201262,
-0.180174,
-0.168723,
-0.160736,
-0.133523,
-0.124587,
-0.111713,
-0.0776971,
-0.0402845,
-0.0300026,
-0.0265626,
-0.00465716,
0.0152243,
0.0347627,
0.043501,
0.0557401,
0.0600481,
0.05114,
0.0308476,
0.0435597,
0.0564696,
0.0613643,
0.0689599,
0.0647232,
0.0549923,
0.0480427,
0.0471292,
0.051295,
0.0501933,
0.0473909,
0.0288124,
0.027147,
0.0260481,
0.0217888,
0.0154953,
0.00845406,
0.0127923,
0.011831,
0.00588259,
0.00415904,
0.00519171,
0.00524629,
0.00479614,
0.0115971,
0.00686592,
-0.00665722,
0.00451575,
0.0138357,
0.00964246,
0.00503605,
0.000171174,
-0.00382572,
-0.000325299,
0.00435631,
0.00196175,
-0.00103943,
0.003603,
-0.0027235,
0.00182575,
0.0064068,
-0.00128044,
-0.000361213,
0.00317618,
0.00577099,
0.00337712,
-0.00174023,
-0.000357268,
-0.000242078,
0.0100946,
0.0178679,
0.0130439,
-0.00178896,
-0.00397598,
0.00114144,
0.0100017,
0.00803891,
0.0114339,
0.00578219,
-0.00503453,
-0.00289393,
0.00767038,
0.0112822,
-0.00209433,
-0.00139134,
0.00804805,
-0.00484985,
-0.0106354,
-0.00494223,
-0.00395581,
-0.00573702,
-0.00235899,
-0.00968329,
0.00141655,
-0.00320718,
-0.00624098,
-0.00396466,
-0.0114297,
-0.0127784,
-0.0109247,
-0.00408949,
0.00578479,
-0.00298712,
-0.00240927,
-0.0110917,
-0.00540741,
-0.00590794,
-0.00967977,
-0.00571786,
-0.00340727,
0.00226967,
0.00176626,
-0.0028126,
-0.0040217,
-0.011084,
-0.00765392,
0.00238581,
-0.0021632,
-0.00382279,
-0.000650317,
-0.00170755,
-0.00456671,
0.00339491,
0.00761286,
0.00355577,
0.000447364,
0.00281818,
0.00516527,
-0.00594402,
-0.00575129,
-0.00429117,
0.00345156,
0.0100313,
0.00169117,
-0.0049023,
-0.0123399,
-0.0105901,
-0.000786937,
0.000561689,
-0.0101056,
-0.0106194,
-0.0147359,
-0.00643472,
-0.0133884,
-0.0152065,
-0.00557745,
-0.0052141,
-0.00748028,
-0.00493027,
0.000981598,
0.00443204,
-0.0194974,
-0.026301,
-0.010311,
-0.00680185,
0.00106095,
-0.00225334,
0.00721063,
0.00566945,
0.00542737,
0.00438617,
0.00158052,
0.00704943,
-0.000886189,
0.00253896,
-0.00386881,
0.000448159,
0.0143625,
0.0102072,
0.0082157,
0.0059655,
0.0143037,
0.017214,
0.0184225,
0.0143729,
0.00620183,
0.00960989,
0.0213638,
0.0170306,
0.00648458,
0.00979497,
0.0208148,
0.0270858,
0.00822001,
0.00678025,
0.00367315,
0.00715417,
0.0157692,
0.0199727,
0.0204146,
0.0141846,
0.00792025,
0.00194813,
-0.00453789,
0.00351527,
0.00232227,
0.00434719,
0.0116972,
0.0229195,
0.0276606,
0.0215547,
0.0224062,
0.0166249,
0.0208823,
0.021426,
0.0213334,
0.0272416,
0.0129368,
0.0198481,
0.0351923,
0.038256,
0.0287156,
0.0234006,
0.0205296,
0.0278684,
0.0314975,
0.0299573,
0.0180656,
0.0166935,
0.0258362,
0.0173299,
0.0091313,
0.0191964,
0.0124014,
0.00977604,
0.0229637,
0.0212085,
0.00887094,
0.00681741,
0.00435782,
0.00714641,
0.00497822,
0.00302176,
0.00903471,
0.00569154,
-0.00863602,
-0.0127586,
-0.0115407,
-0.00402113,
0.000242871,
0.00415494,
-0.00896212,
-0.0116064,
-0.00232987,
-0.00444369,
-0.00776045,
-0.00468159,
-0.0194881,
-0.0193355,
-0.0142632,
-0.0151192,
-0.0215849,
-0.0283246,
-0.0164089,
-0.008659,
-0.00993287,
-0.00744888,
-0.0141554,
-0.0182409,
-0.026665,
-0.0314992,
-0.027727,
-0.0172905,
-0.0065002,
-0.00522684,
-0.0155729,
-0.0197358,
-0.0207884,
-0.01533,
-0.0159808,
-0.0204725,
-0.0174744,
-0.00487956,
-0.000809477,
-0.00250978,
-0.00690235,
-0.0160875,
-0.0159828,
-0.0117632,
-0.00342514,
-0.00407327,
-0.00350905,
-0.0106296,
-0.00908722,
-0.0072937,
-0.00621697,
-0.000999304,
-0.00636417,
-0.0117901,
-0.00562313,
-0.00873645,
-0.00704889,
0.000574448,
-0.00269446,
-0.00811512,
-0.00387243,
-0.00533836,
-0.00668564,
0.000502105,
-0.0022221,
-0.00191089,
0.00515891,
0.0011874,
-0.00395293,
-0.00653906,
-0.00122972,
0.000162695,
-0.00462643,
-0.00362091,
-0.0126788,
-0.0125417,
-0.00579773,
0.00577403,
0.000975374,
-0.00918833,
-0.0125789,
-0.0101661,
0.000640504,
0.00560133,
0.00212834,
-0.000876774,
-0.0123134,
-0.0059643,
0.00279789,
-0.00447407,
-0.0054471,
0.000688781,
0.0136107,
0.0108253,
-0.00378296,
0.00571201,
0.0184349,
0.00363874,
-0.0111656,
-0.0123845,
-0.00147438,
0.00214543,
0.00656626,
0.0049913,
-0.00177042,
-0.00012552,
-0.0103025,
-0.0104546,
-0.000420154,
-0.00770961,
-0.00529773,
-0.0108234,
-0.010693,
0.00318543,
0.0073473,
0.0129593,
0.00497213,
-0.00884576,
-0.0139292,
-0.00898257,
0.00356748,
0.00414088,
0.00649388,
0.00285977,
0.00553836,
0.00870486,
0.00248874,
-0.00145757,
-0.00814984,
-0.00836316,
-0.000963997,
0.00239676,
0.0094874,
0.00542036,
0.0123664,
0.00540452,
-0.00106235,
8.64E-05,
0.00383443,
-0.00875198,
-0.0127513,
-0.000234051,
0.0129409,
0.00945791,
-0.00226791,
0.00252291,
0.00522023,
-0.00906409,
-0.00586092,
-0.000705724,
-0.00185172,
-0.000236636,
-0.00184814,
0.00108142,
0.0161579,
0.00907375,
0.00539769,
0.00480593,
-0.000307531,
-0.0123702,
-0.014876,
-0.00685404,
0.00603146,
0.00241908,
0.00771541,
0.0120487,
0.0165514,
0.00811512,
-0.00614002,
-0.00242586,
-0.00679693,
0.0017839,
0.00195508,
0.000351179,
-0.0062647,
-0.00510855,
-0.00152093,
0.00190868,
-0.000160242,
-0.00125476,
-0.00153681,
0.000449988,
0.00389649,
0.00443342,
-0.00295576,
-0.00127907,
0.000239576,
-0.00616729,
0.000538157,
0.0033644,
-0.00335215,
0.00336835,
0.00766725,
0.00291008,
0.004309,
-0.00367094,
-0.00614121,
0.00401898,
0.00172685,
0.000252596,
0.00380408,
-0.00218282,
-0.00427618,
0.00852847,
0.0105008,
0.00277382,
-0.00559018,
-0.00488151,
-0.00108783,
-0.000844145,
0.00652994,
0.00339502,
0.00156416,
0.00281703,
0.00747682,
0.00372958,
-0.00308504,
0.00224397,
-0.00132171,
-0.0037497,
0.00110845,
-0.00244553,
0.00112263,
-0.00275269,
0.00324274,
0.0076179,
0.00438382,
-0.00031146,
-0.00776398,
-0.00341073,
0.00497914,
0.00300164,
-0.00659358,
-0.00131388,
-0.00316901,
-0.00261236,
-0.00741272,
0.00120089,
0.00753039,
-0.000400093,
-0.00446648,
-0.0124368,
-0.00392111,
-0.000280515,
-0.00378042,
-0.00762373,
-0.00695507,
-0.0129398,
-0.0113361,
-0.00958716,
-0.00785343,
0.00228137,
0.0115946,
0.0107017,
0.000575387,
0.000474626,
-0.00594344,
-0.00896756,
-0.00633053,
-0.00757859,
0.00509069,
0.00497724,
0.0102069,
0.0130132,
0.00886593,
0.00860829,
0.00835714,
-0.00370037,
-0.000376943,
-0.00173893,
-0.00228415,
0.00882973,
0.00490102,
0.000979324,
-0.00633416,
-4.81E-05,
-0.00281885,
-0.0054229,
0.0058944,
0.00588735,
-0.00949038,
-0.00787405,
0.00118791,
0.0104127,
0.00151338,
-0.0117553,
-0.0136965,
-0.000426644,
0.00280889,
0.00264486,
0.00749614,
0.0154208,
0.00214471,
-0.00902886,
-0.00774289,
-0.0066197,
-0.00226069,
-0.00324245,
-0.000664216,
0.0116237,
0.0185718,
0.000437271,
-0.00555926,
-0.00928903,
-0.00913356,
-0.00573999,
-0.00428665,
0.0010523,
0.0020237,
0.000893093,
0.00979739,
0.00866986,
0.012722,
0.0114348,
-0.00490178,
-0.0154124,
-0.00893156,
0.000785026,
0.00515996,
0.00127978,
-0.00486849,
0.00759026,
0.0117922,
0.00272,
-0.0144483,
-0.0165719,
0.00686744,
0.00602664,
0.00485577,
-0.00408945,
-0.00948129,
-0.00436127,
-0.00345565,
0.00116517,
-0.00328297,
-0.0070902,
-0.00685787,
-0.00452751,
0.00103407,
0.00157414,
0.00502269,
0.000214123,
-0.00265602,
0.00741692,
0.00615923,
-0.00157402,
0.000400038,
0.00221,
-2.81E-05,
0.00193864,
-0.00402726,
-0.000125512,
0.00344791,
-0.00285591,
-0.000104573,
0.00409445,
-0.00660523,
0.00566181,
0.0030257,
-0.00869035,
0.00158165,
0.00697545,
0.00328038,
0.00165926,
-0.0025843,
-0.00880642,
-0.0017988,
0.00047234,
-0.00280548,
-0.00451507,
-0.0056304,
-0.0148929,
-0.0112676,
-0.00511354,
-0.00452385,
-0.00577785,
-0.0132458,
-0.0201313,
-0.0188285,
-0.0167808,
-0.0228875,
-0.0242008,
-0.0148929,
-0.00321428,
0.00468867,
-0.00283216,
-0.0209181,
-0.0225401,
-0.019507,
0.000646292,
-0.00123772,
-0.0112372,
-0.0126794,
0.00625366,
0.0143339,
0.0120509,
0.0139733,
0.0158973,
0.0217102,
0.020573,
0.0120029,
0.019144,
0.0174008,
0.00159708,
-0.00302025,
0.0024178,
0.00351028,
0.00964478,
0.00803857,
0.00273903,
-0.0096504,
-0.0195799,
-0.0165286,
-0.0163528,
-0.0101494,
-0.00843388,
-3.66E-05,
0.0106771,
0.00105563,
-0.0128753,
-0.011044,
0.00752589,
0.0141966,
0.0209494,
0.018728,
0.00365484,
0.0136038,
0.023498,
0.020721,
0.0206524,
0.0268583,
0.0197628,
0.0228358,
0.0263723,
0.0310234,
0.0228753,
0.021026,
0.0169005,
0.0109853,
0.00489877,
0.0143374,
0.017291,
0.0220103,
0.0158691,
0.0163405,
0.0192116,
0.0291693,
0.0334221,
0.033257,
0.0276944,
0.024493,
0.0284977,
0.010084,
0.000635699,
0.00192195,
0.00276554,
-0.0010523,
0.00016684,
0.0086774,
0.00731482,
-0.00554976,
-0.0148766,
-0.0114511,
-0.0181,
-0.03645,
-0.0360851,
-0.0291494,
-0.0281094,
-0.0172731,
-0.0181679,
-0.00895059,
-0.00969026,
-0.0184468,
-0.0230841,
-0.0244116,
-0.0177359,
-0.00774887,
-0.0043203,
-0.00485886,
-0.00272713,
-0.0066609,
-0.00144531,
0.00564072,
-0.0015821,
-0.00628027,
-0.00456648,
0.000811624,
0.000309561,
0.00105089,
-0.00505272,
-0.00100662,
0.0107644,
0.00890159,
-0.00351819,
-0.0154887,
-0.00888363,
-0.000693246,
-0.00499521,
-0.0107842,
-0.0073787,
-0.00173664,
-0.0106876,
-0.00898624,
-0.00132568,
0.000318603,
-0.00761419,
-0.00829501,
-0.00560905,
-0.0032801,
0.00402987,
-0.000188307,
-0.00493379,
-0.00422305,
0.00420472,
0.00966339,
0.00988101,
-0.000651766,
-0.00883506,
-0.00545377,
-0.00443494,
0.00197829,
-0.00402675,
-0.0106492,
-0.0148276,
-0.0117209,
-0.003771,
-0.00523329,
-0.0132097,
-0.0113706,
-0.0194733,
-0.0182743,
-0.020571,
-0.0317156,
-0.0455691,
-0.04353,
-0.043082,
-0.0479509,
-0.056034,
-0.0537356,
-0.0604692,
-0.0597187,
-0.0632837,
-0.0661296,
-0.0727648,
-0.0734524,
-0.0646002,
-0.0566901,
-0.0508136,
-0.0516177,
-0.0572722,
-0.045067,
-0.0393803,
-0.0281762,
-0.00637472,
0.00310992,
0.00649348,
0.00853566,
0.0317967,
0.0587026,
0.0783117,
0.099746,
0.118368,
0.13342,
0.172133,
0.206226,
0.230713,
0.225712,
0.223763,
0.248177,
0.245705,
0.241741,
0.19548,
0.149933,
0.1426,
0.151905,
0.188627,
0.232143,
0.205831,
0.152004,
0.111351,
0.0436426,
-0.0028341,
-0.0280198,
-0.0329889,
-0.0521524,
-0.061662,
-0.100456,
-0.156332,
-0.192809,
-0.231656,
-0.22926,
-0.205596,
-0.212026,
-0.207823,
-0.197887,
-0.206202,
-0.212887,
-0.214236,
-0.218668,
-0.210805,
-0.210374,
-0.185797,
-0.153062,
-0.138187,
-0.123323,
-0.102271,
-0.0697952,
-0.0526992,
-0.0408863,
-0.0124443,
0.0169964,
0.0339095,
0.0471002,
0.0546921,
0.0557775,
0.0520355,
0.0499968,
0.0587776,
0.0692035,
0.0784071,
0.0710557,
0.0641773,
0.0578031,
0.0509887,
0.0565405,
0.062986,
0.0546412,
0.0430048,
0.0371443,
0.0372235,
0.0296475,
0.0200764,
0.0198317,
0.0164442,
0.00974219,
0.0168678,
0.0124019,
0.011705,
0.0116887,
0.00651361,
0.00797943,
0.0144544,
0.0120084,
0.00354173,
-0.00157158,
-0.00220995,
0.000968851,
0.00358582,
0.00595576,
0.00224483,
0.000537117,
-0.00791255,
0.00213505,
0.00963728,
0.0107058,
0.00582217,
0.00145602,
0.00278287,
0.0036507,
-0.00549052,
-0.00182511,
0.0013754,
0.00540413,
0.00313933,
0.00218565,
0.0086914,
0.00501636,
-0.00269107,
0.000941699,
0.00426213,
0.00354724,
0.00251805,
-0.00740327,
-0.00550384,
-0.00586365,
0.00171138,
0.0104235,
0.00554531,
0.00196395,
0.00259123,
-0.00535821,
-0.0052172,
0.0062498,
-0.000248884,
-0.00480946,
-0.007271,
-0.00779621,
-0.00492949,
0.00553587,
0.00725459,
0.00216787,
0.000631954,
0.00135158,
0.00108959,
-0.00274386,
-0.014195,
-0.00931406,
0.000732392,
0.00655779,
-0.00251903,
-0.00918318,
-0.00566759,
0.00203947,
0.00422767,
-0.00298759,
-0.00957384,
-0.00226213,
0.0111789,
0.0063125,
-0.00294534,
-0.00251671,
0.000476885,
-0.000115146,
-0.00477947,
-0.00963344,
-0.00658691,
-0.002276,
0.00394542,
-0.00378285,
-0.0123539,
-0.00607157,
0.00778099,
0.00816541,
0.00074485,
-0.0128631,
-0.0150197,
-0.0183479,
-0.018155,
-0.0129847,
-0.0101191,
-0.00259963,
0.00261559,
0.00196674,
-0.00276551,
-0.00494556,
-0.0074855,
-0.000836623,
-0.00376985,
-0.00608898,
0.00224048,
-0.00418705,
-0.00125799,
0.00261409,
0.0038705,
-0.00298933,
-0.00178104,
-0.00771466,
-0.00395839,
0.00447298,
-0.00685448,
-0.00330775,
-0.000258263,
0.000192442,
0.00371065,
-0.00944412,
-0.0075512,
-0.000964842,
-0.00521768,
-0.00849343,
-0.000755776,
0.00602321,
0.00877207,
0.00425762,
-0.00266185,
-0.00130217,
0.00591291,
0.0117049,
0.00394063,
0.00155773,
0.00019084,
0.00793532,
0.0048905,
0.00190288,
0.019205,
0.0182862,
0.010964,
0.00452479,
0.00253313,
0.00612602,
0.0140131,
0.00969238,
0.00384869,
0.0178476,
0.0157678,
0.00392489,
0.00449364,
0.0135945,
0.0178003,
0.0200282,
0.0157515,
0.00626902,
0.0147264,
0.0107043,
0.0152445,
0.0213924,
0.0152348,
0.0147384,
0.0218488,
0.0252414,
0.0224923,
0.0181356,
0.0218836,
0.0283987,
0.0247368,
0.01624,
0.013267,
0.0232628,
0.0287508,
0.0274658,
0.0241006,
0.0256133,
0.024397,
0.0207737,
0.027364,
0.0294391,
0.0182572,
0.0179271,
0.0164694,
0.0142033,
0.0171111,
0.018067,
0.0149609,
0.0192761,
0.0183827,
0.0169663,
0.0135624,
0.0164157,
0.0149986,
0.0172314,
0.0164698,
0.0148075,
0.00737987,
-0.00355791,
0.00140301,
0.00170008,
-0.000573523,
0.00719413,
0.0159302,
0.000541053,
-0.015195,
-0.0131633,
-0.0184568,
-0.0244501,
-0.0209572,
-0.0121943,
-0.00480448,
0.00460288,
-0.00501698,
-0.0254176,
-0.0221358,
-0.0299701,
-0.0303152,
-0.026412,
-0.0130859,
0.00173042,
-0.00462131,
-0.0245373,
-0.0264628,
-0.0223739,
-0.0240844,
-0.0336982,
-0.0251607,
0.000234377,
0.00575346,
-0.00666,
-0.0188796,
-0.0171478,
-0.0179688,
-0.0122777,
-0.0143126,
-0.00400414,
-0.0111255,
-0.0151215,
-0.0125908,
-0.0137253,
-0.0110778,
-0.0101471,
-0.00736978,
-0.00711203,
-0.01374,
-0.0141425,
-0.00200512,
1.93E-05,
-0.00952256,
-0.0105613,
-0.0103762,
-0.014952,
-0.00810345,
-0.00277392,
-0.00349204,
0.00560369,
-0.00153849,
-0.00889542,
-0.00999184,
-0.00806218,
0.000293906,
-0.00434091,
-0.00610577,
-0.00807368,
-0.00118068,
0.0029232,
0.00181204,
-0.00111442,
-0.00553121,
-0.00399306,
0.000750176,
-0.00149549,
-0.00166666,
-0.00138058,
-0.00662385,
-0.012217,
-0.011848,
-0.00600125,
0.00791328,
0.00125308,
-0.00429618,
-0.00792455,
-0.00542371,
0.00013242,
0.00453713,
0.0024509,
0.00115669,
-0.00824523,
-0.00860048,
0.00316638,
0.00213468,
0.000442134,
-0.000777787,
-0.00233356,
-0.000502504,
0.00487785,
0.00426034,
-0.00283988,
-0.0075217,
0.00202888,
-0.00315455,
-0.0021957,
-0.00108153,
-0.00288616,
-0.00129771,
0.000933359,
0.000732929,
-0.00707688,
-0.00259079,
0.00351117,
0.00216719,
-0.00824053,
-0.00343748,
0.000555853,
0.00454894,
0.00384908,
0.00395863,
-0.000462534,
-0.000352005,
0.00234834,
0.00747665,
0.00532322,
0.00268467,
0.000531782,
-0.00178297,
0.00010951,
-0.00366249,
-0.00063854,
0.00189888,
0.00184578,
-0.00322545,
0.000763985,
0.0026479,
-0.00744519,
-0.00313748,
0.00343411,
-0.00553123,
-0.00446459,
-0.00550266,
-0.000877363,
-0.001107,
-0.000203474,
-0.000108154,
0.00144511,
-0.00881291,
-0.009035,
-0.00261894,
0.00930299,
0.00925393,
0.000632678,
0.00415339,
0.00622284,
0.00700298,
0.00309545,
-0.000321365,
0.00743291,
0.00240758,
0.00175588,
0.0022408,
0.00839289,
0.00985461,
-0.000818774,
-0.00307594,
-0.00565626,
-0.00775128,
-0.00952351,
0.0031054,
0.00569905,
-0.00158119,
-0.00692228,
-0.00660243,
-0.00385827,
0.00179571,
-0.0155327,
-0.011017,
0.00094049,
-0.000535347,
0.00203344,
0.001689,
0.00134503,
0.00262065,
-0.000632683,
-0.00388289,
0.00355151,
0.00678335,
0.00953551,
0.00565938,
0.00664543,
0.000842791,
-0.00284744,
0.00269564,
0.00258435,
0.00264482,
0.00692295,
0.00668023,
-0.00115796,
-8.53E-05,
-0.00223878,
-0.001631,
-0.00651527,
-0.000709051,
0.00672513,
0.0110941,
-0.00151958,
-0.00991669,
-0.00179861,
0.00470983,
0.00459182,
-0.0108915,
-0.00063613,
0.000726708,
-0.00939233,
-0.00218816,
0.00113971,
-5.62E-05,
0.0115395,
0.012947,
0.00966838,
-0.000400545,
0.00264467,
-0.00110108,
1.34E-05,
-0.00145655,
0.00225641,
-0.000985325,
0.00435306,
0.00208829,
-0.00422004,
0.00128651,
0.00226285,
-0.00841196,
-0.00225688,
0.00778148,
0.00568186,
-0.000464681,
2.22E-05,
-0.00904023,
-0.0104984,
0.00471019,
-0.00225275,
-0.00565636,
-0.00695664,
0.00210016,
-0.000331937,
-0.00389526,
-0.0111782,
-0.0058354,
0.00566102,
0.00793842,
0.00876541,
0.00846655,
0.0106029,
-0.00650958,
-0.00985748,
0.00331084,
0.0134148,
0.00443371,
-0.00453656,
0.000421019,
4.88E-05,
0.00195235,
0.0103385,
0.00918558,
0.00237652,
0.00220902,
0.00673985,
0.00641976,
0.000438042,
-0.00958874,
-0.00440495,
-0.000680615,
-0.00537618,
-0.00231085,
0.0072189,
0.00443929,
-0.00320739,
-0.00293847,
-0.00575975,
0.00273,
0.00391942,
-0.00688553,
-0.00897186,
-0.0120499,
-0.0203275,
-0.0145476,
0.000435077,
-0.00402277,
-0.00121927,
-0.000539796,
-0.000688978,
-0.00441695,
-0.0055732,
0.00102194,
0.00371825,
0.00413542,
-0.00597826,
-0.00558372,
-0.009082,
0.00666975,
0.0131915,
0.00368821,
-0.000477547,
0.00182852,
-0.00055823,
0.0028823,
0.00486918,
0.00588906,
-0.00133917,
-0.00953229,
-0.000726562,
0.00387948,
0.00380109,
0.00211363,
-0.00360976,
-0.00414449,
0.00050982,
0.00274758,
0.000141584,
0.00159244,
0.0124405,
0.00598418,
-0.00580135,
-0.00543898,
-0.000373031,
-0.00144623,
-0.00202405,
0.0113247,
0.0123836,
0.00357937,
-0.000685831,
-0.000250831,
0.00326546,
0.00468394,
0.0130663,
0.00154847,
-0.00850888,
-0.0120898,
-0.0101658,
1.37E-05,
0.00356,
-0.00146922,
-0.00827758,
0.000288245,
0.00691254,
0.00398924,
-0.00378875,
-0.0050936,
-0.00121987,
0.0054051,
-0.00107759,
-0.00529417,
-0.00190413,
-0.0093555,
-0.00175566,
0.00794949,
0.00487214,
0.00729902,
0.00940458,
0.00552506,
0.00617936,
-0.00303505,
-0.0111139,
-0.00818594,
0.0023504,
0.00690134,
-0.00747967,
-0.00794226,
0.00324737,
0.00974395,
0.00458802,
0.0028285,
0.00608251,
-0.00151028,
0.00189538,
-0.000532075,
-0.00863248,
0.00235192,
-0.001079,
-0.00921765,
-0.00216143,
0.00163915,
0.00800751,
0.0028623,
-0.000852801,
-0.00670053,
-0.00562115,
-0.0105635,
-0.00421456,
-0.00292163,
-0.00199427,
-0.0072608,
-0.0116033,
-0.0156715,
-0.00522683,
0.00484049,
-0.000197744,
-0.0154885,
-0.0148172,
-0.00433457,
-0.000871625,
0.00204408,
-0.00367912,
-0.0109208,
-0.0117511,
-0.0136132,
-0.0122985,
-0.012984,
-0.0108127,
-0.0143594,
-0.0137498,
-0.0104373,
-0.00878805,
-0.0052381,
-0.000430952,
-0.00779418,
-0.0138919,
-0.0143506,
-0.00512013,
-0.00334987,
-0.00401891,
0.0025865,
0.00562791,
0.0110967,
0.0102576,
0.00133375,
0.00649827,
0.0153967,
0.0129812,
0.0113907,
0.0172612,
0.0199134,
0.0165969,
0.0154033,
0.0176275,
0.00368847,
-0.00812759,
-0.00924406,
-0.00678157,
0.00168709,
-0.00439018,
-0.0146563,
-0.0129283,
-0.0127988,
-0.00358619,
0.000793816,
-0.00483527,
-0.00833399,
-0.00872844,
-0.0031023,
0.0100049,
-0.00192967,
-0.00313719,
0.00218027,
0.00917375,
0.00878717,
0.00895658,
0.00451032,
0.00500314,
0.00655822,
0.0175976,
0.0284188,
0.0213892,
0.0201423,
0.0198294,
0.0196472,
0.0142604,
0.0154873,
0.0163729,
0.0161115,
0.0187508,
0.018143,
0.0168777,
0.0217511,
0.0272596,
0.0322678,
0.0301373,
0.0219962,
0.0243454,
0.0357218,
0.0316822,
0.0275918,
0.0291055,
0.0260183,
0.0233368,
0.0111784,
-0.00399484,
-0.0121612,
-0.00766839,
-0.00331238,
-0.0120509,
-0.00314816,
0.00477468,
-0.00156278,
-0.00873895,
-0.0196761,
-0.0275864,
-0.0227679,
-0.0337095,
-0.0312885,
-0.0258672,
-0.0250559,
-0.0188249,
-0.0102515,
-0.00856161,
-0.0144035,
-0.0182296,
-0.0135663,
-0.00720898,
-0.0083801,
-0.00639674,
-0.00497819,
-0.00266493,
0.00378295,
-0.0115233,
-0.0142726,
-0.00429945,
0.00496837,
0.00689966,
0.0082948,
0.000742291,
0.00544483,
0.00428093,
-0.005983,
-0.0122362,
-0.0109161,
-0.00606613,
-0.0023772,
0.00468354,
-0.0009033,
-0.00376292,
-0.0100438,
-0.00323881,
-0.0030905,
-0.00603852,
-0.00172614,
0.00369669,
0.00213769,
-0.00365339,
-0.01028,
-0.0148314,
0.00243224,
0.010275,
0.0035143,
-0.00102473,
-0.0028622,
0.00204111,
0.00137904,
-0.00566575,
-0.0134385,
-0.0107832,
0.00131818,
0.0050526,
0.0091459,
0.00856774,
-0.00867151,
-0.0192838,
-0.0234466,
-0.0205285,
-0.0076327,
-0.0127712,
-0.0175114,
-0.0260758,
-0.0277982,
-0.0302972,
-0.0379537,
-0.0428476,
-0.0485464,
-0.0578057,
-0.0643159,
-0.0601457,
-0.0545138,
-0.0576059,
-0.0682755,
-0.0756618,
-0.0787709,
-0.0722346,
-0.0768957,
-0.0655294,
-0.0479644,
-0.0440579,
-0.0607163,
-0.0512773,
-0.0412493,
-0.0297597,
-0.0160949,
-0.00843988,
-0.00170815,
0.0151748,
0.0374243,
0.0597688,
0.0690054,
0.0893099,
0.114269,
0.147012,
0.183219,
0.213059,
0.226373,
0.233868,
0.249638,
0.253788,
0.249551,
0.23643,
0.189479,
0.165468,
0.166294,
0.180901,
0.225569,
0.248604,
0.218047,
0.161158,
0.100339,
0.0439058,
0.00470179,
-0.00685966,
-0.0107903,
-0.0324423,
-0.078233,
-0.117843,
-0.160758,
-0.203351,
-0.230824,
-0.221411,
-0.210467,
-0.20809,
-0.212718,
-0.215497,
-0.227306,
-0.225677,
-0.221955,
-0.219542,
-0.213094,
-0.201302,
-0.186246,
-0.164981,
-0.144913,
-0.120492,
-0.101375,
-0.0774713,
-0.0606946,
-0.0415937,
0.000936129,
0.0244028,
0.0429538,
0.0526116,
0.0584595,
0.0581345,
0.0657772,
0.0659105,
0.0650615,
0.0684589,
0.0693512,
0.07231,
0.0713832,
0.0675722,
0.0641393,
0.0575448,
0.0576762,
0.0509516,
0.0430424,
0.0352468,
0.0306395,
0.0263047,
0.021751,
0.0134103,
0.0122767,
0.012189,
0.00763223,
0.00458012,
0.00463651,
0.00875761,
0.00236415,
0.00388974,
0.00733244,
0.00895639,
0.00664464,
0.00588682,
0.00343473,
-0.00153159,
0.00230583,
0.00377186,
0.00399115,
0.00732571,
-0.00241362,
-0.0053278,
-0.00239275,
-0.00202773,
-0.00294178,
-0.00368152,
-0.00198395,
-0.00561887,
0.00110921,
0.00719466,
0.00422137,
0.00448736,
0.0065355,
-0.00274269,
-0.00700308,
-0.00430404,
-0.00306082,
-0.00667202,
-0.00737014,
-0.000138762,
0.0124326,
0.00590786,
0.000191317,
-0.00148084,
0.00364199,
0.00504054,
0.00497982,
0.00782853,
0.00241995,
-0.0086574,
-0.00388127,
-0.00348079,
0.00306203,
-0.000436266,
0.00155897,
-1.53E-05,
-0.00467419,
-0.00189964,
-0.00302006,
-0.00690316,
-0.00222144,
-0.00353969,
-0.0038996,
-0.00556694,
-0.00109777,
-0.00440929,
-0.00870477,
-0.00799657,
-0.0050357,
-0.00322047,
0.00376045,
0.00118081,
0.00311956,
0.00504545,
0.00436912,
0.00675425,
0.00394731,
-0.00113929,
-0.0070497,
-0.00472236,
-0.00435324,
0.00214798,
0.00361408,
0.00020559,
0.00276352,
0.00999173,
-0.000605366,
-0.0076683,
-0.00100371,
-0.00359286,
-0.0104209,
-0.0103236,
-0.00767201,
-0.00440983,
-0.00992463,
-0.0109481,
-0.00796725,
-0.00341061,
-0.00083953,
-0.00284414,
-0.00457035,
-0.00537135,
-0.00443829,
-0.00970074,
-0.0150091,
-0.00790222,
-0.00407671,
0.0039124,
-0.00448581,
-0.0124399,
-0.0205957,
-0.0108267,
0.00376113,
0.00213245,
-0.00211688,
7.80E-05,
-0.00260806,
-0.0088776,
-0.00222127,
-0.0056154,
-0.00481599,
0.00163672,
0.00387467,
0.00303411,
0.00364973,
0.00491597,
-0.0010931,
-0.00272227,
0.0005176,
-0.00480147,
-0.000712991,
0.0103593,
0.014502,
0.00573104,
0.0028221,
0.000762121,
0.00392401,
0.00341083,
0.00391908,
0.00221571,
0.00429176,
0.00659045,
0.009277,
0.0107365,
0.0103249,
0.00480906,
0.00713839,
0.0140797,
0.015441,
0.0170516,
0.0156781,
0.00760192,
0.011922,
0.01343,
0.0105112,
0.0115841,
0.0109883,
0.00921303,
0.00577649,
0.00715556,
0.0141632,
0.0133717,
-0.00314449,
0.00734085,
0.019263,
0.0175761,
0.021865,
0.0258223,
0.026377,
0.0206199,
0.0126,
0.0130011,
0.0252246,
0.021277,
0.00860478,
0.0190898,
0.0282978,
0.0315368,
0.032206,
0.031762,
0.0230839,
0.0236482,
0.0213163,
0.020941,
0.0246234,
0.0195757,
0.0145328,
0.0227601,
0.0298497,
0.0241444,
0.0122731,
0.0133244,
0.0188762,
0.0229331,
0.0154537,
0.0173051,
0.0134285,
0.00931681,
-0.000379741,
0.00876506,
0.00712699,
0.00343476,
0.00269496,
0.00505937,
0.000808318,
-0.00553699,
-0.00605687,
-0.0078814,
-0.00988729,
-0.00674349,
-0.0123761,
-0.0115821,
-0.011652,
-0.00644437,
-0.00243988,
-0.0108118,
-0.0110148,
-0.0148686,
-0.0168769,
-0.0172069,
-0.0132743,
-0.0107474,
-0.00607,
-0.0160754,
-0.0221566,
-0.0181664,
-0.0144639,
-0.0269095,
-0.0255664,
-0.0214394,
-0.0129104,
-0.0106598,
-0.0108031,
-0.0235346,
-0.0213424,
-0.00972706,
-0.00988604,
-0.0268339,
-0.029174,
-0.00428122,
0.00803753,
-0.00807402,
-0.0157164,
-0.0250819,
-0.014159,
0.00977308,
-0.00150709,
-0.00414142,
-0.00816021,
-0.00854394,
-0.00156773,
-0.00373516,
-0.0106742,
-0.0147764,
-0.0212176,
-0.0180202,
-0.00404917,
-0.00713638,
-0.00899323,
-0.000393515,
0.0107353,
0.00157744,
-0.0136244,
-0.0141544,
-0.00146754,
0.00323874,
-0.012171,
-0.0227737,
-0.0161072,
0.00443187,
0.00615591,
0.0143115,
-0.0029796,
-0.0018608,
0.000515853,
-0.0130017,
-0.0121501,
-0.00275363,
-0.0100555,
-0.0012031,
0.000178501,
-0.00153959,
-0.00910665,
-0.00148338,
-0.0010001,
0.00529113,
-0.00445455,
-0.00677046,
-0.00456778,
-0.00625985,
-0.00796122,
-0.00465374,
0.00253119,
0.00534169,
0.00442624,
0.0132175,
0.0134298,
-0.000438128,
-0.00767206,
-0.00535875,
0.00844386,
0.0126982,
0.00530033,
-0.00193686,
-0.00027528,
-0.00104358,
-0.00958295,
-0.00712247,
-0.00110734,
0.00085538,
0.00831219,
0.0105812,
0.0107358,
0.00278708,
-0.00922053,
-0.0144458,
-0.00609317,
0.00143385,
-0.00529726,
-0.013341,
-0.0131502,
-0.00553436,
0.00416615,
9.22E-05,
-0.012092,
-0.0155561,
0.00539771,
0.00513488,
0.00356104,
-0.0135636,
-0.0124159,
-0.00675006,
0.00149346,
-0.000791916,
-0.00049669,
0.00577905,
0.014153,
0.0089296,
0.00338017,
0.000904663,
0.00279924,
0.00210685,
-0.00327481,
-0.00444383,
0.00458874,
0.00133025,
-0.00256651,
0.0076259,
0.00310339,
-0.01144,
-0.00735994,
0.00417847,
0.00634605,
0.0028656,
-0.00237833,
0.00356104,
0.00660531,
0.000120021,
-0.00262464,
-0.00502678,
0.00585994,
0.0115873,
-0.00159998,
-0.00408777,
0.00477103,
0.0107353,
0.0110534,
0.0120362,
0.0117409,
0.003532,
-0.0015872,
0.0114323,
0.0118424,
-0.00780193,
-0.0188585,
-0.0148553,
0.0046921,
-0.00342532,
-0.00619591,
-0.00135518,
0.000415261,
0.00866224,
0.010115,
-0.00202395,
-0.00218676,
-0.00720406,
0.00849226,
-0.00202808,
-0.0051054,
-0.000416263,
0.00346237,
-0.00722481,
-0.00448162,
-0.00384327,
0.000192676,
0.00390457,
-0.00290221,
0.00226685,
0.00856994,
0.00500352,
-0.000664,
0.00435248,
-0.00244021,
-0.0153773,
0.00373314,
-0.00352759,
-0.017254,
0.00867529,
0.0140614,
0.00845275,
0.00220683,
-0.00742691,
0.000751283,
0.00408596,
0.000149959,
0.000271291,
0.0131887,
0.0134951,
0.002647,
-0.00220235,
0.0036397,
-0.00669058,
-0.00584494,
0.00989803,
0.0101142,
-0.0132885,
-0.0017293,
0.00821802,
0.0110506,
-0.000352563,
0.00507848,
-0.00130028,
-0.0165766,
-0.00175073,
-0.00213476,
-0.0101232,
0.00389779,
0.0048116,
-0.00220357,
-0.00387802,
-0.0029629,
-0.00220925,
0.002105,
0.00415417,
0.00782223,
-0.00906095,
-0.00668577,
-0.00139662,
0.0179727,
-0.00230421,
-0.0183722,
-0.00725191,
0.0139031,
0.00463584,
0.00718304,
0.0179842,
0.00888117,
-0.00070732,
-0.0102962,
-0.00354162,
-0.000510605,
0.00850575,
-0.00368018,
-0.00421824,
-0.00670264,
-0.00530835,
-0.00213985,
0.00409676,
0.000778305,
-0.000120646,
-0.00523558,
-0.00162083,
0.00182265,
0.0044472,
-0.0121957,
-0.0061932,
-0.000848395,
-0.0016635,
-0.00912397,
-0.0102836,
-0.000287328,
0.00290216,
-0.00411322,
0.00860482,
0.0122514,
-0.000617104,
-0.00524085,
-0.00598874,
0.000214334,
0.00721937,
-0.000832284,
0.00615962,
0.00586337,
-0.0132104,
-0.00817699,
0.0031629,
0.00414152,
-0.00200417,
-0.00297493,
-0.000550446,
0.00284229,
0.000892446,
-0.000411964,
-0.00900003,
-0.00334833,
0.000360869,
-0.00628699,
0.00502824,
-0.00145677,
0.00144533,
0.00370167,
-0.00747171,
-0.00504932,
0.0192223,
0.00886588,
-0.00278201,
0.000299713,
-0.00503004,
-0.0051777,
0.00681536,
0.00505682,
0.00184549,
-0.00136227,
0.005143,
0.0105187,
-0.000447088,
-0.00946823,
0.00352155,
-0.0066278,
-0.012406,
-0.0149463,
0.00306664,
0.020433,
0.0172477,
-0.0024438,
-0.00627647,
-0.00379836,
0.000135484,
2.27E-05,
-0.00882977,
-0.0123432,
0.00728336,
0.00587107,
-0.00104467,
0.00190975,
0.00486299,
-0.000599846,
-0.00687272,
-0.00343667,
0.00631015,
-0.00400981,
-0.00866578,
0.00415587,
0.0137416,
-0.00369688,
-0.0051133,
-0.00167343,
-0.00535222,
0.00326985,
0.0162635,
-0.00164947,
-0.00726096,
-0.00850039,
0.00126722,
0.00343184,
0.00365743,
0.0016203,
-0.00348875,
0.00952951,
0.016239,
-0.00455972,
-0.00399523,
0.00142587,
0.00280276,
-0.00892722,
-0.0192001,
0.00742391,
0.00864081,
-0.00276556,
0.00136212,
-0.00098524,
0.00362332,
0.00741935,
-0.000440342,
-0.0107325,
-0.00759905,
-0.00236891,
0.00172024,
0.00288703,
0.00711771,
8.19E-06,
5.11E-06,
-0.00227924,
-0.000211867,
-0.0143468,
-0.00325862,
0.0131457,
-0.00818224,
-0.00267612,
-0.0109572,
0.00225004,
0.00813754,
0.0125282,
-0.00222003,
-0.0163671,
-0.0193971,
-0.00532507,
0.010311,
-0.00469472,
-0.0250994,
-0.00980082,
-0.0096141,
0.00377931,
0.00513369,
-0.0125098,
-0.00917983,
-0.0172411,
-0.0276301,
-0.0159095,
-0.013148,
-0.0114135,
-0.0160433,
-0.00826207,
-0.0178424,
-0.013062,
-0.0178672,
-0.0217347,
-0.00944823,
0.00637435,
0.00308181,
0.00365807,
-0.00111667,
0.0144922,
0.0140775,
0.00573399,
0.015681,
0.00977577,
0.0166642,
0.0331118,
0.015427,
0.00892288,
0.0113348,
0.014087,
0.0128107,
0.00815374,
0.000440415,
-0.00612123,
-0.00780851,
-0.0112554,
-0.00626579,
-0.00643153,
-0.0175765,
-0.0172045,
-0.0179351,
-0.0199268,
-0.0178353,
-0.00761039,
0.00169065,
0.0102353,
-0.00300798,
0.00161511,
0.00857606,
0.01238,
0.00785587,
0.0116795,
0.0183564,
0.0243339,
0.0343123,
0.0423112,
0.0300506,
0.0140433,
0.00707898,
0.0193577,
0.0327589,
0.0213935,
0.0249113,
0.0279402,
0.0193142,
0.0207174,
0.0263221,
0.0228555,
0.0230979,
0.0155545,
0.00733954,
0.0337241,
0.0323969,
0.0222826,
0.0234383,
0.0331027,
0.0112935,
0.00039808,
0.00849622,
0.0062853,
0.0107452,
0.000826277,
-0.00535855,
-0.00231883,
-0.00786678,
-0.0106853,
-0.00770992,
-0.0152948,
-0.0214735,
-0.0382293,
-0.0388682,
-0.0284129,
-0.0300103,
-0.037839,
-0.0101514,
-0.00407507,
-0.00472369,
-0.0172767,
-0.0202113,
-0.00802476,
-0.00272427,
-0.019196,
-0.00549115,
-0.00481452,
-0.0102043,
-0.00434132,
0.000964855,
-0.00382953,
-0.000110214,
0.000637255,
0.00262455,
-0.00304471,
0.00208175,
0.00150141,
-0.00720947,
-0.00398086,
-0.000784729,
-4.55E-05,
-0.0168103,
-0.00867799,
0.00153605,
0.00768437,
0.00620844,
0.0103795,
-0.00634094,
-0.00673183,
-0.00859361,
-0.00723304,
0.00705939,
-0.00487892,
-0.00679955,
-0.00533865,
0.00257678,
0.00658762,
-0.00285666,
0.00482594,
0.00325365,
-0.000295944,
-0.00064975,
0.00428983,
-0.00328516,
-0.0067144,
-0.00357921,
0.00675803,
-0.00435665,
-0.023665,
0.00157626,
-0.00389586,
-0.00886281,
-0.0120448,
-0.00698429,
0.00419907,
-0.0173495,
-0.0230985,
-0.025363,
-0.0138022,
-0.0225772,
-0.0241921,
-0.027399,
-0.0365794,
-0.0494777,
-0.0546122,
-0.0574905,
-0.0500236,
-0.0488789,
-0.0611723,
-0.0713601,
-0.0645413,
-0.0712842,
-0.0865501,
-0.0651627,
-0.0609784,
-0.0768735,
-0.0582706,
-0.0596587,
-0.0675553,
-0.0506721,
-0.0384024,
-0.0387746,
-0.046059,
-0.0213492,
0.00160264,
0.0256178,
0.0462354,
0.0564042,
0.0744782,
0.0885466,
0.104334,
0.142449,
0.179476,
0.210118,
0.219687,
0.221156,
0.248366,
0.239995,
0.254464,
0.243861,
0.190042,
0.152205,
0.17287,
0.185315,
0.215857,
0.253101,
0.230458,
0.162894,
0.102913,
0.0578629,
0.0142122,
-0.0109884,
-0.0317607,
-0.0354255,
-0.0583363,
-0.105612,
-0.152915,
-0.202121,
-0.207036,
-0.215804,
-0.183835,
-0.200364,
-0.204923,
-0.186556,
-0.212622,
-0.231041,
-0.224352,
-0.216515,
-0.223871,
-0.225211,
-0.20239,
-0.160395,
-0.120391,
-0.108549,
-0.0803186,
-0.0604054,
-0.0581369,
-0.0613147,
-0.0192231,
0.0256424,
0.0354798,
0.0427196,
0.0501769,
0.0459383,
0.0554702,
0.0692809,
0.0628254,
0.0730488,
0.0729702,
0.0597166,
0.0613189,
0.0690688,
0.0533776,
0.0493829,
0.0488481,
0.038192,
0.0434775,
0.031211,
0.0353779,
0.00953222,
0.00448368,
0.0161802,
0.0357132,
0.0182467,
-0.00499768,
0.00108462,
0.021593,
0.012012,
-0.000484408,
-0.00652324,
-0.00190974,
0.00865079,
0.00864018,
0.0184374,
0.0108451,
0.00235975,
0.00235835,
0.00678699,
0.0119162,
-0.000385417,
-0.00115674,
0.0099206,
-0.0234738,
-0.0099118,
0.00852827,
0.00303821,
0.00565732,
-0.00109379,
-0.00443245,
0.00389312,
-0.00476155,
-0.0116254,
0.00158728,
0.00315788,
0.00198643,
-0.00354572,
0.00242014,
0.00904127,
0.0100061,
0.00757975,
-0.00827141,
-4.03E-06,
0.00470885,
-0.00643231,
-0.00462308,
0.0124012,
0.0122741,
-0.00338714,
0.00101813,
0.00606941,
0.00124655,
0.00483459,
0.00307673,
-0.00823603,
-0.00159464,
0.00633122,
-0.00792489,
-0.00309851,
-0.00799626,
-0.0156609,
-0.00537978,
-0.00644477,
-0.0115747,
0.0149934,
0.0112789,
-0.00216694,
-0.019357,
-0.00727907,
0.00218654,
-0.01572,
-0.00533045,
-0.00354151,
-0.0114861,
-0.00489027,
0.00702176,
0.00288872,
-0.00401966,
0.00361198,
0.00604058,
0.00407507,
-0.00196114,
-0.00591892,
-0.00132554,
0.0113332,
0.00341333,
-0.00712266,
0.00496975,
-0.00400323,
-0.0149465,
-0.0131342,
0.00256607,
0.00367231,
-0.013376,
-0.00957865,
0.0030889,
-0.0121081,
-0.0216715,
-0.0212318,
-0.00496295,
0.0135418,
0.00887615,
-0.000511238,
-0.00976493,
-0.00788004,
-0.00424181,
-0.00532257,
-0.00982689,
0.00652014,
0.00763194,
-0.00163578,
0.00703762,
0.00921717,
-0.0039967,
-0.0149639,
-0.00216039,
0.00463856,
0.00478671,
-0.0055987,
-0.00272793,
-0.0001932,
0.0036251,
-0.00599782,
-0.0104502,
-0.000344371,
-0.00173246,
-0.00134252,
-0.00936729,
-0.00784136,
0.00226713,
0.00752963,
-0.00677682,
-0.00957782,
0.00285248,
0.00624409,
0.0114437,
0.0119829,
-0.0138186,
-0.0153039,
0.00623744,
0.0135905,
0.0159846,
0.0124544,
0.00705092,
0.000427069,
0.00132701,
0.0172003,
0.00808105,
0.0175062,
0.0132773,
0.0114205,
0.0214886,
0.0277891,
0.0196463,
0.00709775,
-0.0103376,
0.0209091,
0.0187954,
0.0333296,
0.0486562,
0.0256161,
-0.000670846,
0.00685651,
0.0148645,
0.0129988,
-0.01039,
0.0214065,
0.0384809,
0.0274032,
0.00549066,
0.00947941,
0.0288519,
0.0398206,
0.0132575,
0.0124375,
0.0181037,
0.0224885,
0.0218698,
0.0170562,
0.0154913,
0.0140992,
0.0242065,
0.0351311,
0.0271279,
0.0200993,
0.0146898,
0.0188256,
0.0171296,
0.011054,
0.0276194,
0.0242604,
0.0101956,
0.00257285,
0.0253362,
0.0338146,
0.0126273,
0.00934391,
0.0121431,
0.00985055,
0.00197209,
0.00872721,
0.0114966,
0.0169058,
0.00843892,
0.000326954,
0.00129879,
-0.0051618,
-0.0036911,
-0.00821606,
-0.00709485,
0.00160484,
-0.00106017,
-0.0152609,
-0.0236908,
-0.0106613,
-0.00628046,
-0.000846616,
-0.0281891,
-0.00643054,
-0.0105034,
-0.0211564,
-0.0204324,
-0.0246809,
-0.0156201,
-0.0112168,
-0.0122836,
-0.0175288,
-0.0185398,
-0.0188788,
-0.0209744,
-0.0269312,
-0.0220234,
-0.0187115,
-0.0158622,
-0.017844,
-0.0178587,
-0.013639,
-0.0142453,
-0.00802373,
-0.0160092,
-0.0305931,
-0.0245854,
0.00217872,
-0.00612765,
-0.00855895,
-0.0185433,
-0.00387375,
-0.00840177,
-0.00315684,
0.00264041,
-0.013015,
-0.0138705,
-0.0152961,
-0.00693178,
-0.00447148,
-0.000791715,
-0.0266366,
-0.00189887,
0.00594245,
-0.00343359,
-0.00833954,
-0.00747828,
-0.00165649,
0.000713147,
-0.0141224,
-0.023667,
-0.00445377,
0.00613738,
-0.00241042,
-0.00743955,
-0.0107283,
-0.000947181,
0.0123577,
-0.0038247,
-0.00304868,
0.000770119,
-0.021334,
0.00200604,
0.00686974,
-0.00528525,
0.0102064,
0.0067397,
-0.0286306,
-0.0217868,
0.008662,
0.00203149,
0.00994532,
0.017678,
-0.00729687,
-0.0101193,
-0.00292555,
-0.00173588,
-0.00412222,
-0.00393452,
-0.00181948,
-0.0222124,
-0.0100915,
0.0193321,
0.00278452,
0.000951485,
0.00121105,
-0.00485124,
-0.0101144,
-0.00389738,
0.0107258,
0.00689238,
-0.00293634,
0.00826536,
0.0159004,
-9.71E-05,
-0.00347718,
-0.00524344,
-0.0126773,
-0.0366206,
-0.00716309,
0.00093183,
0.01291,
0.0197099,
0.0119464,
-0.00730497,
-0.00664891,
0.0116498,
-0.00726743,
-0.0114533,
0.0110681,
-0.0105828,
0.0038609,
0.00811725,
-0.0122158,
0.00872568,
0.0118753,
0.00807576,
0.00396212,
0.0048748,
-0.00277968,
-0.00540792,
-0.0102923,
0.00506081,
0.00666743,
0.0111953,
0.0181584,
-0.00157277,
-0.00495281,
-0.00913613,
0.00125009,
0.00128369,
0.0045573,
-0.0117475,
-0.0188264,
0.00112073,
-0.00498617,
0.00379432,
0.015648,
0.00921305,
0.00358431,
-0.00253347,
-0.0065516,
0.0039901,
-0.000199463,
-0.00164331,
-0.014097,
-0.00260596,
0.00596639,
0.00514703,
-0.00328379,
-0.00362862,
0.00621663,
-0.00611303,
-0.0139156,
-0.00942287,
-0.00493295,
-0.0245573,
0.00727799,
0.0214737,
0.0274168,
0.0241372,
-0.0061652,
-0.0115428,
-0.0125467,
-0.0179145,
-0.0214958,
-0.00419404,
0.00405372,
0.0210494,
0.0215488,
0.0167188,
0.00963506,
0.00887497,
-0.0114531,
-0.0147756,
0.00797024,
0.00564756,
-0.000220278,
0.00865348,
-0.00527483,
-0.0206439,
-0.0136651,
-0.00537601,
0.00600339,
0.0324481,
0.0307499,
-0.00896282,
-0.0090137,
0.00357166,
0.00241485,
-0.000833267,
0.000785126,
-0.0024404,
-0.0116435,
0.00343664,
0.0080062,
0.0180851,
0.00956028,
-0.00138665,
-0.0016486,
0.0014913,
-0.0152709,
-0.00549168,
-0.00137534,
0.00969994,
0.00151762,
-0.00828365,
0.011852,
0.0041521,
-0.0121262,
-0.0128706,
-0.00908543,
-0.0182478,
-0.00653577,
0.0137522,
0.014944,
-0.00166544,
-0.00710861,
7.13E-05,
0.00935596,
0.0022974,
0.00673019,
0.00242616,
-0.00753981,
-0.00617588,
4.48E-05,
0.000926949,
0.00569434,
-0.00280716,
0.00681631,
0.0156302,
0.00745111,
0.00234449,
0.000794831,
0.0015064,
-0.00199505,
0.000969869,
-0.00837198,
0.00201996,
0.00317753,
0.00561842,
-0.00781201,
-0.011546,
-0.00995345,
-0.022778,
-0.0244512,
0.0102715,
0.0106718,
5.30E-05,
0.00236567,
-0.00779645,
-0.00761508,
-0.00631355,
-0.00178711,
-0.000184117,
-0.00651999,
-0.0127021,
0.00667772,
0.0147243,
0.00383318,
-0.00560406,
-0.0122915,
0.00302974,
0.0193233,
0.00746143,
0.0074166,
0.00899465,
0.00750351,
-0.00320547,
-0.0164967,
-0.0160251,
0.00516842,
0.0208682,
0.00922795,
0.0194433,
0.00167154,
-0.00864699,
-0.0121596,
-0.0153394,
-0.0257924,
-0.00192899,
0.0106154,
0.01621,
0.00563055,
-0.00461679,
0.0144349,
0.00727864,
-0.00342986,
-0.0095995,
0.000582861,
-0.00346832,
0.0102884,
-0.00410602,
0.00901648,
0.00677146,
-0.0163436,
0.00197443,
0.011235,
-0.000699281,
0.000640273,
0.0102366,
0.00640431,
0.00564936,
0.00991314,
-0.0117138,
-0.0226591,
-0.0170974,
0.00302875,
0.00244062,
0.00379346,
-3.36E-05,
0.00892173,
0.00266287,
-0.0168687,
-0.0093787,
0.0118627,
0.00995841,
-0.00538248,
-0.0110192,
0.0072885,
0.00681781,
-0.000132927,
0.00569322,
-0.0043476,
-0.00177427,
0.0015994,
0.00706768,
0.00362599,
-0.00209102,
-0.00846527,
-0.00708187,
-0.00473758,
-0.0108183,
0.0023486,
0.00369256,
-0.00306397,
0.00522076,
-0.0128804,
-0.00509648,
-0.0126927,
0.00446499,
-0.0122038,
-7.11E-05,
0.00558588,
-0.00364672,
0.0120416,
0.0136515,
-0.0117622,
-0.00933908,
-0.00594171,
-0.00480588,
0.0105753,
0.0159284,
0.0109297,
0.00286183,
0.00903999,
0.00616084,
0.00749368,
0.000253479,
-0.000348941,
0.00584714,
0.00476149,
-0.0157444,
-0.00696228,
-0.0159856,
0.0191635,
0.00753615,
0.0039895,
-0.0236823,
-0.00816143,
0.00798911,
0.00162567,
-0.00298012,
-0.00340328,
-0.00903219,
0.0100688,
0.00130354,
-0.0117034,
-0.0284687,
-0.0237495,
0.00374704,
0.00563279,
0.00796028,
0.00441681,
0.00535804,
-0.0128438,
-0.0155587,
-0.00408175,
-0.0140153,
0.00189398,
-0.014126,
-0.00996642,
-0.00358951,
-0.00891139,
-0.00554063,
0.00425867,
-0.00313851,
-0.0207716,
-0.00413609,
-0.0181222,
-0.0203287,
-0.017226,
-0.0109151,
-0.0127211,
0.0199194,
0.0119215,
0.00455389,
0.0146494,
-0.00779381,
-0.00597198,
0.00878943,
-0.0173957,
-0.00442096,
-0.00342173,
0.0189401,
0.0401722,
0.0243503,
0.0120943,
0.00567118,
0.00459644,
-0.0241415,
-0.0151633,
0.000784984,
0.0123767,
0.00828548,
-0.00549964,
0.00435953,
0.0067942,
-0.03687,
-0.0201483,
-0.0155362,
-0.0157484,
0.00964221,
0.0075603,
-0.00192337,
0.00676441,
0.00158672,
0.0137812,
0.00580935,
-0.00371334,
0.0090073,
0.0413877,
0.0291882,
0.0237135,
0.0131558,
-0.00943818,
0.00869233,
0.0249916,
0.01697,
0.00922943,
0.00355337,
0.00755071,
0.0314189,
0.0321139,
0.017566,
-0.00154362,
0.0073118,
0.0187243,
0.0338246,
0.0330291,
0.00953736,
0.0143207,
0.0224526,
0.0242177,
0.00892892,
0.0173595,
0.036232,
0.0192555,
0.0106001,
0.00702026,
0.0318096,
0.0048543,
-0.00928644,
-0.0114314,
0.00423562,
0.0106801,
-0.00262595,
-0.0125499,
-0.0242787,
-0.0273013,
-0.0276125,
-0.0295883,
-0.0342055,
-0.0110458,
-0.00882345,
-0.0166998,
-0.00927072,
-0.011298,
-0.0099985,
-0.0210702,
-0.0140896,
0.00576544,
-0.00228423,
-0.00247317,
-0.0119529,
-0.00725609,
-0.00666634,
-0.0187575,
-0.0109992,
0.00140006,
-0.00129938,
0.00566522,
0.00368686,
0.014777,
-0.0141409,
0.00383687,
0.00349629,
-0.0060983,
0.00159445,
0.00343472,
0.001851,
0.00121346,
-9.57E-05,
-0.00369454,
-0.0160562,
0.00829221,
0.00753221,
-0.0105695,
0.0039905,
0.00201522,
-0.00889118,
-0.00801689,
-0.00928135,
-0.0162474,
-0.00286388,
0.000442445,
-0.00471389,
-0.00959836,
-0.00369679,
-0.00287333,
-0.0147395,
0.00859943,
-0.00649476,
-0.0124523,
-0.0228747,
0.00948279,
-0.0178257,
0.000700921,
0.00776537,
-0.00602955,
-7.70E-05,
-0.0161403,
-0.0179828,
-0.0171065,
-0.00818387,
-0.00514427,
-0.0240205,
-0.0407118,
-0.0173609,
-0.0219446,
-0.0437901,
-0.0464926,
-0.0350729,
-0.0422218,
-0.0399424,
-0.056389,
-0.0580564,
-0.0653244,
-0.0723533,
-0.0762121,
-0.058107,
-0.0563647,
-0.0434445,
-0.0359799,
-0.04348,
-0.0450266,
-0.0389549,
-0.0347629,
-0.0302938,
-0.0347159,
-0.016577,
0.0175475,
0.0156099,
0.00210681,
0.0400493,
0.056027,
0.0627195,
0.0651976,
0.0939353,
0.142991,
0.179393,
0.181653,
0.200612,
0.193731,
0.231094,
0.222891,
0.199056,
0.207477,
0.171426,
0.137963,
0.120643,
0.138675,
0.204139,
0.234763,
0.208307,
0.143465,
0.0870845,
0.0449057,
0.0145728,
-0.00368234,
-0.0193388,
-0.0515852,
-0.0823889,
-0.126404,
-0.170123,
-0.206022,
-0.192103,
-0.183134,
-0.191478,
-0.192916,
-0.171799,
-0.154707,
-0.173226,
-0.177375,
-0.192411,
-0.191799,
-0.201104,
-0.180342,
-0.163477,
-0.135269,
-0.126271,
-0.112493,
-0.0694551,
-0.0519671,
-0.0403962,
-0.0209324,
0.00583336,
0.026527,
0.0397499,
0.00979533,
0.0360812,
0.0448688,
0.0525545,
0.0457559,
0.0426437,
0.0468205,
0.0325948,
0.0464457,
0.0526404,
0.0533097,
0.0557585,
0.0587114,
0.049723,
0.0474153,
0.0517966,
0.0314781,
0.0231969,
0.00348844,
0.0103799,
0.00972187,
0.0197952,
0.0205264,
0.0159533,
0.00558151,
0.00445166,
-0.0109109,
0.00398628,
0.0132077,
0.0222455,
-0.00370265,
-7.73E-05,
-0.00151832,
0.0175342,
0.0146735,
0.00105791,
0.0336431,
0.0297288,
0.0231302,
0.00138075,
-0.0253302,
-0.0118582,
-0.00950744,
0.0161865,
0.0228205,
0.0121705,
0.00478437,
-0.00257815,
-0.00247669,
0.0063799,
-0.00206584,
0.00454832,
-0.00436595,
-0.00987776,
-0.0116662,
-0.0155596,
-0.00262662,
0.000428925,
-0.0199886,
0.00343896,
0.00921537,
0.0174055,
-0.00241563,
-0.00865995,
-0.000357726,
-0.00226962,
-0.012131,
0.00857203,
-0.00796666,
0.00541055,
-0.000168577,
-0.0111109,
0.00106499,
-0.00749621,
-0.00394357,
-0.0109328,
0.0157151,
-0.00297118,
0.0100383,
-0.0180781,
0.00152294,
-0.0221048,
-0.0264955,
-0.00323378,
0.0169338,
-0.0103329,
0.000734951,
0.00207504,
-0.000971988,
-0.00694944,
0.00890239,
-0.00358284,
-6.46E-05,
0.0126603,
0.00627172,
0.00569068,
-0.00397144,
-0.0109019,
0.0112763,
0.00705577,
-0.0195188,
-0.000319302,
0.0120595,
0.00369949,
0.00502292,
-0.0184404,
-0.0234839,
-0.0191707,
0.00258939,
-0.00448709,
0.00151221,
-0.00514399,
-0.0246182,
-0.00658274,
9.01E-05,
-0.0021725,
-0.0046322,
0.00776087,
0.00717248,
-0.0125466,
-0.0166034,
-0.0101759,
-0.00119309,
0.00322521,
0.0199098,
0.00160793,
-0.0144591,
-0.0109747,
-0.00428229,
-0.00522289,
0.00222582,
0.0172563,
-0.0153128,
-0.0152134,
-0.0112487,
-0.00859499,
0.00440151,
0.00800036,
0.00139502,
-0.0120134,
-0.0119936,
-0.00614852,
0.00989443,
0.00231663,
0.00283959,
-0.00924706,
0.0225379,
0.00773678,
-0.0154555,
-0.0177446,
-0.00301058,
0.0190407,
0.0298029,
0.0164952,
-0.00599053,
-0.00512349,
0.000166049,
0.011338,
0.0115656,
0.0186533,
0.00023868,
0.0176575,
0.0197754,
-0.0073218,
0.00951488,
0.013487,
0.0219131,
0.0265429,
0.0191262,
-0.00437947,
-0.0182406,
-0.00416737,
0.0125984,
0.0195996,
0.0155451,
0.0138702,
0.0121515,
0.00731806,
-0.00224422,
0.016967,
0.0235283,
0.0114564,
0.00794246,
0.0136383,
0.0141456,
0.0251657,
0.0047897,
0.0203415,
0.0171274,
0.023956,
0.0316065,
0.02843,
0.0257571,
0.0295773,
0.0332572,
0.0168932,
0.0212663,
0.0276044,
0.0295957,
0.0316082,
0.0104988,
0.0264647,
0.0359713,
0.00325118,
0.0207032,
0.0337866,
0.0132053,
0.0333937,
0.0122988,
0.0125406,
0.0111322,
0.017937,
0.0159547,
0.0155337,
0.0155322,
-0.00784774,
-0.00606741,
0.00710825,
0.014354,
0.0114525,
0.00632347,
0.0182145,
0.000833167,
-0.0040787,
-0.000738159,
-0.0101921,
-0.0128686,
-0.0225317,
-0.0162108,
-0.0102585,
0.00454117,
-0.0147034,
-0.00893262,
-0.0110042,
-0.00101977,
-0.0179857,
-0.0068863,
-0.0136856,
-0.0218818,
-0.00154127,
-0.0207968,
-0.0210705,
-0.0271246,
-0.0174387,
-0.0247039,
-0.0261042,
-0.00610538,
0.00842832,
-0.0215039,
-0.00803008,
0.000463642,
-0.0211054,
-0.0327653,
-0.0411497,
-0.00466791,
-0.00520283,
-0.0126529,
0.0056729,
-0.00297895,
-0.0174068,
-0.0393884,
-0.0278172,
-0.00259515,
0.0141101,
-0.00957868,
-0.0126497,
0.00214869,
-0.0294258,
-0.00169725,
-0.010788,
-0.0144583,
-0.0018628,
-0.00811517,
-0.0171917,
-0.00967041,
-0.00334954,
-0.00130117,
0.00829064,
-0.0155138,
-0.0118652,
-0.00859541,
0.003522,
0.00668825,
-0.00281658,
-0.00751312,
-0.0109596,
0.00545596,
-0.010211,
-0.010058,
-0.00524941,
-0.0148791,
0.00733714,
0.00621775,
0.0052292,
-0.00226191,
-0.00266068,
-0.00826455,
-0.0101716,
-0.00773327,
-0.0127615,
-0.00810144,
0.00106976,
0.0199317,
0.0164439,
-0.0166747,
-0.0200327,
-0.00689886,
0.00525054,
0.0105906,
-0.00107305,
-0.00643651,
0.00226855,
0.00157779,
0.0021723,
0.00647987,
0.00365844,
0.00179958,
0.00543462,
-0.00145724,
-0.00673897,
-0.0209294,
-0.0131196,
0.0102171,
0.0100802,
0.00491774,
-0.000415707,
-0.0130408,
0.00927904,
0.00634394,
-0.00695822,
0.00918183,
-0.0180582,
-0.0160179,
-0.0039548,
0.000977649,
0.0191699,
0.0129165,
-0.00791068,
-0.00997462,
-0.00848647,
-0.017848,
-0.00860595,
0.00791289,
0.00436079,
0.0186064,
0.00647223,
0.00339962,
-0.0139132,
-0.0134231,
-0.0129297,
-0.0155064,
-0.00173275,
0.00606049,
0.0109492,
0.00613757,
0.0113696,
0.00787419,
0.026561,
0.00901094,
-0.0148375,
-0.0176353,
0.00336874,
0.0226058,
0.000266208,
0.0124084,
0.00692343,
0.00630478,
-0.00158534,
-0.00914186,
-0.0105399,
-0.011606,
0.014522,
0.0124983,
0.00028499,
0.00620074,
0.000306762,
0.00331614,
-0.00985499,
-0.0286885,
-0.0185538,
-0.00340164,
-0.00329891,
-0.000121056,
0.00402817,
0.0167548,
0.014594,
0.00790326,
0.00250863,
0.0108713,
-0.00487552,
-0.0222374,
-0.00302235,
0.00697322,
-0.00778531,
-0.00247114,
-0.0110672,
0.00397096,
0.0149717,
0.00882747,
0.0112694,
0.00174584,
-0.000323604,
-0.0158143,
-0.00265121,
0.0131117,
0.00283105,
-0.00290807,
0.00948759,
-0.00416108,
0.0110049,
0.0104825,
0.00527538,
0.00978554,
-0.00964777,
-0.0132159,
-0.0261646,
0.00248067,
0.0243329,
0.0104243,
-0.00202592,
0.00607719,
-0.00216372,
-0.0147741,
-3.65E-05,
-0.00391032,
-0.0108606,
-0.00907423,
0.0139091,
0.00274461,
0.00420014,
0.00921355,
-1.59E-05,
-0.00698162,
-3.15E-05,
-0.00441019,
-0.00636168,
-0.0173751,
-0.0133374,
0.00445739,
0.0088232,
0.010765,
0.0125491,
0.00430477,
0.00156801,
-0.00957775,
-0.0182896,
0.000515859,
0.00379297,
0.00675352,
0.00486627,
0.0172266,
0.00904133,
-0.00334554,
-0.00181002,
0.00199556,
0.0135724,
0.0141476,
0.00469098,
0.00122232,
-0.0030563,
-0.00685145,
-0.00336759,
-0.0157471,
-0.0140531,
0.00559728,
0.008734,
-0.0103077,
-0.00508403,
-0.000840593,
0.0118083,
-0.00306326,
-0.0137371,
-0.0145493,
-0.0173129,
-0.0192765,
-0.00166773,
-0.00397185,
0.00116053,
0.0189085,
0.0170692,
0.0097223,
0.00301777,
0.00698952,
0.00124789,
-0.00999916,
-0.00959762,
0.00439469,
0.00446733,
0.00728851,
0.000235648,
0.00661165,
-0.00643465,
-0.00184522,
0.00678605,
0.0146039,
0.000570247,
-0.0171907,
-0.00210658,
0.00277621,
-0.0174308,
-0.0013955,
0.00605585,
-0.00608109,
-0.00268982,
-0.0114426,
0.00795588,
0.00485416,
0.00757259,
-0.0123696,
-0.0190461,
-0.00711541,
-0.0154151,
-0.0131968,
-0.000944815,
0.0140599,
-0.00329782,
0.00702106,
0.0306152,
0.0292945,
0.0139025,
0.00240293,
-0.0120001,
-0.0228327,
-0.0142355,
0.00456791,
0.0109218,
0.00353168,
-0.00255285,
0.00480487,
0.0118489,
0.0135619,
0.0157686,
-0.00192236,
-0.000350238,
-0.000877718,
-0.00188822,
-0.015197,
-0.0113534,
-0.00298228,
-0.00675391,
-1.49E-05,
0.00946454,
0.00986856,
0.0112278,
-0.010249,
-0.0113568,
0.0061216,
-0.00555552,
-0.0122454,
-0.0144363,
-0.00258314,
0.0100417,
0.015668,
0.00102349,
-0.0130184,
-0.0227379,
-0.00289171,
-0.00882657,
-0.00283824,
-0.00337624,
-0.0274334,
-0.00235,
-0.00191962,
-0.00300102,
-0.0102869,
-0.0304117,
0.00378385,
-0.00236794,
-0.0158528,
-0.0274449,
-0.00623305,
-0.00529436,
-0.00019044,
-0.00726316,
0.00326645,
-0.000964167,
0.000276319,
-0.00983916,
-0.0109175,
-0.0184911,
-0.0205821,
0.00352611,
0.00949548,
0.0107601,
0.0256087,
0.0194124,
0.0355428,
0.0356489,
-0.00259981,
-0.0269314,
-0.00336054,
-0.011019,
-0.0175397,
-0.00722356,
-0.00822655,
0.00939147,
0.0150475,
0.0140846,
0.0222029,
-0.0102752,
-0.0118185,
-0.0230414,
-0.0225784,
-0.0188394,
-0.0249272,
-0.0197986,
0.0127351,
0.0340036,
0.0182829,
0.00749297,
0.00277356,
0.0230654,
0.00493912,
0.0139416,
0.0146393,
0.0185283,
0.0351624,
0.027327,
0.0238322,
0.0319646,
0.0081966,
0.0230876,
0.0193532,
0.0165755,
0.0184772,
0.0404312,
0.0346972,
0.00790754,
0.0188022,
0.014945,
0.022223,
0.0297878,
0.0224207,
0.0140312,
0.0151297,
0.0103337,
0.0141981,
0.014414,
0.00352708,
0.00936085,
0.0134562,
0.00657823,
-0.00254538,
-0.00356841,
-0.00184163,
-0.015338,
-0.00166873,
-0.0100384,
-0.0207128,
-0.0220485,
-0.0113017,
-0.0250519,
-0.0327197,
-0.0255714,
-0.0118641,
-0.00810765,
-0.00977322,
-0.0183189,
-0.0114134,
-0.0219075,
-0.0158171,
-0.0104561,
-0.0169889,
-0.0202012,
-0.00682024,
0.00195782,
-0.00535314,
-0.00722636,
0.0122011,
-0.00386804,
-0.00752906,
-0.0107533,
-0.00560756,
-0.0105366,
-0.00935441,
0.0180084,
0.0239774,
0.00677469,
0.00443155,
0.00740172,
0.00597674,
-0.0182909,
-0.00358275,
0.00834989,
-0.00223601,
-0.00232815,
0.0092056,
0.0105177,
-0.0100443,
-0.0031245,
-0.00141316,
-0.0243309,
-0.0192855,
-0.00181395,
-0.00751978,
-0.0171474,
-0.0146778,
-0.0213125,
-0.0150452,
0.00169421,
0.0123965,
0.00540701,
-0.00390432,
0.00549597,
0.0002669,
-0.0191113,
-0.0227064,
-0.00340478,
-0.0112182,
0.000613211,
0.00893933,
0.00468823,
0.00257582,
1.90E-06,
-0.00158864,
0.000381416,
0.00670889,
-0.0109384,
-0.0203693,
-0.00638409,
-0.0235302,
-0.039291,
-0.03895,
-0.0422583,
-0.032716,
-0.0378382,
-0.0526103,
-0.0391639,
-0.0499273,
-0.0481585,
-0.0652414,
-0.0708996,
-0.0630107,
-0.0608093,
-0.0542349,
-0.0427705,
-0.0517872,
-0.0595601,
-0.0488917,
-0.0415808,
-0.0254393,
-0.0306746,
-0.0316615,
-0.010055,
-0.00139716,
0.0205884,
0.0265094,
0.0547781,
0.0603024,
0.0746934,
0.106903,
0.125099,
0.145505,
0.177058,
0.186452,
0.184228,
0.229628,
0.247733,
0.220416,
0.203334,
0.18611,
0.160138,
0.14755,
0.147167,
0.15424,
0.205766,
0.19584,
0.148338,
0.0994268,
0.0894791,
0.0226045,
-0.0200509,
-0.0622059,
-0.0557279,
-0.0825924,
-0.121689,
-0.174236,
-0.197753,
-0.18811,
-0.173859,
-0.158136,
-0.179998,
-0.200817,
-0.195548,
-0.182832,
-0.18551,
-0.162167,
-0.179804,
-0.182426,
-0.159825,
-0.138847,
-0.123835,
-0.115888,
-0.115615,
-0.0957873,
-0.0565183,
-0.0252677,
-0.0167085,
0.00206583,
0.000364447,
0.0125515,
0.0297829,
0.0280018,
0.051117,
0.0462628,
0.0388949,
0.0174076,
0.0485164,
0.0471392,
0.0401744,
0.0431887,
0.044558,
0.0528824,
0.0474677,
0.0606949,
0.0581071,
0.0476426,
0.0412822,
0.0322318,
0.0323048,
0.00266042,
0.0175728,
0.0270312,
0.0125796,
0.0153131,
0.0120806,
0.000605803,
0.00741726,
0.0108188,
0.00950428,
0.00572799,
-0.00133037,
-0.00488481,
0.0083242,
0.00171401,
0.00780273,
0.0184905,
0.00221341,
-0.0240439,
-0.00348653,
0.0023856,
-0.00384335,
0.00096347,
0.00563615,
0.00159454,
-0.000159915,
-0.00561721,
-0.0013477,
0.00698302,
0.011444,
0.00167725,
-0.000633459,
-0.00309479,
-0.00133812,
0.00576869,
-0.00200334,
-0.0018372,
0.0122541,
0.0134068,
0.0132716,
-0.000936483,
-0.0135209,
0.000115335,
-0.00712037,
-0.00173064,
0.00463209,
0.0121287,
-0.00739955,
-0.00718567,
0.00904741,
0.0133027,
0.00509385,
-0.0233477,
-0.0187817,
-0.0117943,
0.00327783,
0.0016744,
0.00783066,
0.00879985,
-0.00124438,
-0.0146967,
-0.00631248,
-0.00457387,
0.00459767,
0.0110066,
0.0136814,
0.00372122,
-0.0164471,
-0.0110603,
-0.00714404,
-0.0118194,
0.00792572,
-0.0043871,
0.00933727,
0.00232994,
0.00485164,
0.00460252,
0.00174336,
0.00258429,
-0.00517469,
-0.00842683,
-0.00199489,
-0.00659404,
-0.0155907,
-0.00179914,
-0.00292651,
-0.00991176,
-0.00932458,
-0.0103904,
0.00355783,
0.00209531,
0.0127315,
0.00212909,
-0.00948464,
-0.031982,
-0.0122845,
0.00737025,
0.00529695,
-0.0121936,
0.000371697,
-0.000376918,
-0.0121738,
-0.010583,
0.00358686,
0.00395849,
-0.0152931,
-0.0171086,
-0.00504697,
-0.00791209,
-0.00175193,
0.00534396,
-0.0172077,
0.00131376,
-0.0130442,
-0.0115688,
-0.00639444,
0.00134934,
0.00211794,
-0.0011723,
-0.00576672,
0.00678673,
0.0063921,
0.00163025,
0.00415687,
0.00264827,
-0.0117917,
-0.0150465,
8.72E-06,
0.0029549,
0.018556,
0.0181732,
0.00181073,
0.0128428,
0.0179374,
0.0036672,
-0.0124863,
0.00249399,
0.0164084,
0.0109747,
0.00270306,
0.00842742,
0.0105124,
0.0141402,
0.0136503,
0.0213453,
0.00631943,
-0.00342778,
0.0171901,
0.0228646,
0.0157026,
0.012699,
0.018226,
0.00785059,
-0.000299743,
0.0025164,
0.0221275,
0.0192122,
0.0203127,
0.0213858,
0.0128861,
0.0111607,
0.0155644,
0.0099168,
0.0191413,
0.0225262,
0.0158657,
0.0116224,
0.0232296,
0.0160576,
0.019075,
0.0183656,
0.0100465,
0.00512269,
0.0207483,
0.0227779,
0.0330581,
0.0256962,
0.0184925,
0.0188899,
0.0325511,
0.0162665,
-0.00277898,
0.0161925,
0.020099,
0.0252816,
0.0257491,
0.0197175,
0.0181866,
0.012251,
-0.0055385,
0.0235558,
0.0111704,
0.013291,
0.0197161,
0.0223473,
0.0137333,
0.00551816,
0.00254889,
-0.0024647,
0.00260622,
-0.00118046,
0.0143247,
0.00299233,
0.0172458,
-0.00911078,
-0.0103844,
-0.0144178,
-0.00794985,
0.00059611,
0.015743,
0.00770646,
0.00463666,
-0.0162916,
-0.0269278,
-0.0225858,
-0.0246335,
-0.0186745,
-0.00180185,
-0.0143158,
-0.00832068,
-0.0161864,
-0.0248092,
-0.0270722,
-0.0139165,
-0.0201376,
-0.00252994,
-0.00753978,
-0.00587783,
-0.0265121,
-0.0276918,
-0.0260853,
-0.0158665,
-0.0169396,
-0.00519145,
-0.00521841,
-0.000998034,
-0.0137278,
-0.013953,
-0.0162357,
-0.0268846,
-0.0250211,
-0.00999492,
-0.00882812,
-0.0160153,
-0.00145318,
0.00492357,
-0.00756209,
-0.0198111,
-0.0204919,
-0.00377528,
0.00396444,
-0.0233234,
-0.0123279,
0.003618,
0.000243339,
-0.00675159,
0.00254086,
-0.00424192,
-0.0126947,
-0.0084124,
-0.00369155,
-0.0035466,
0.0025432,
0.0121523,
0.00408309,
0.0069805,
-0.00682642,
-0.0159752,
-0.0073566,
0.00365691,
-0.00235286,
-0.00272916,
-0.00734252,
-0.0127937,
-0.00678303,
-0.0155257,
-0.0076264,
0.0204757,
0.00550712,
-0.00139415,
-0.0112316,
-0.0154276,
-0.00394828,
-0.00753999,
-0.00144253,
-0.00442717,
0.00373509,
0.00686217,
-0.00346038,
-0.00457623,
0.00270599,
0.00641154,
0.00120057,
0.00811097,
0.00286908,
-0.00125495,
-0.00442262,
-0.00970832,
-0.00368008,
0.00120174,
0.00364286,
0.00785117,
-0.00818142,
0.000533454,
-0.0011202,
-0.0181585,
-0.0114187,
-0.0106763,
-0.00266086,
-0.00387799,
0.00460684,
-0.003907,
-0.0061156,
0.00461681,
-0.000190481,
-0.00111737,
0.0117084,
0.00608415,
0.000944312,
0.00243906,
0.0175276,
0.00963762,
-0.0150809,
-0.0082414,
0.00264599,
0.00431166,
-0.00243509,
0.00117771,
0.0107807,
0.00145248,
0.000865212,
-0.00506028,
2.02E-05,
-0.00363661,
-0.00939621,
-0.0106241,
-0.00214242,
0.0113555,
0.0190267,
-0.00259416,
-0.00835783,
-0.0152566,
-0.0126102,
0.000552048,
0.00723793,
0.0157005,
0.0089477,
0.00753161,
0.00433184,
-0.000813324,
0.0153994,
-0.00868572,
-0.0162671,
-0.0196431,
-0.02561,
-0.0066565,
0.0066327,
0.00891804,
0.00732067,
-0.0148268,
0.00477979,
0.0164604,
0.00419504,
-0.0064469,
0.00314548,
-0.0031145,
0.00357908,
-0.00541652,
-0.00145733,
0.0185319,
0.0060035,
-0.00085092,
0.0118861,
-0.00514247,
0.000981081,
0.0187672,
0.0160123,
0.00598642,
-0.00273367,
-0.0150028,
-0.025157,
0.000463705,
0.00521974,
-0.0133164,
-0.00352185,
0.00595976,
0.00541875,
-0.00854338,
0.00436814,
0.0113023,
0.000930884,
0.00173533,
-0.00408566,
-0.00811739,
0.00452783,
0.00763359,
0.019324,
0.021474,
0.00485865,
-0.00560126,
-0.0128194,
0.00278455,
0.00771152,
-0.00952907,
-0.00427388,
0.00810262,
0.0101222,
-0.0106768,
-0.00930725,
-0.00729307,
0.0105767,
-0.0032758,
-0.0160004,
-0.00461811,
0.00238894,
0.00340213,
-0.000445992,
0.00298145,
0.00284202,
-0.0130012,
-0.00247305,
-0.000851447,
-0.00457581,
0.00464081,
-0.00168255,
0.00105248,
0.00216605,
0.00165892,
-0.00338097,
-0.00372864,
0.00433877,
-0.00118636,
0.00202895,
0.00298126,
0.00555521,
-0.0124188,
0.000844604,
0.00456558,
0.0024667,
0.000212388,
0.00815995,
0.00462487,
0.00320084,
0.0106847,
-0.0132184,
-0.0154292,
6.48E-06,
0.00217946,
0.0122889,
0.0173882,
0.0106803,
0.00122715,
-0.0130755,
-0.00601228,
-0.00493238,
-0.00239235,
0.00646206,
0.000107286,
0.00152218,
-0.0111404,
0.00823953,
0.00868608,
0.00605775,
-0.00595722,
-0.0144131,
-0.00215669,
0.00103547,
-0.000144003,
-0.0060191,
-0.00283483,
-0.000301065,
0.0154991,
-0.00333542,
-0.0105222,
0.0117396,
0.00227922,
0.00106785,
-0.00742995,
0.00235446,
-0.00874105,
-0.00851287,
0.0154997,
0.00633379,
-0.00170329,
-0.00553662,
-0.00678427,
0.0060437,
0.00446599,
0.00369463,
-0.0139092,
-0.0141997,
0.00654548,
0.00317706,
-3.06E-05,
-0.0119775,
-0.00369622,
0.00798356,
0.00267207,
-0.000534733,
0.000143612,
0.00066176,
0.00377107,
0.00672075,
0.00692179,
0.00405071,
0.0044189,
-0.000550418,
-0.00988627,
-0.0109662,
0.0041392,
0.0152013,
0.00393349,
0.00124426,
0.00179293,
-0.0060726,
-0.00439016,
-0.0190528,
0.000428702,
0.00728534,
0.00798914,
-0.00490513,
0.00112842,
-0.000774933,
0.00216753,
-0.004934,
-0.00395677,
0.00412624,
0.00669038,
-0.00435798,
0.00253505,
1.82E-05,
0.00119688,
0.00331737,
-0.00478911,
-0.00305873,
-0.00314578,
-0.011526,
-0.0037662,
0.00233017,
0.0014204,
-0.00714503,
-0.0133349,
-0.0163417,
-0.00742849,
-0.0107085,
-0.0203569,
-0.0104819,
-0.00940324,
-0.0100003,
-0.0122724,
-0.0056997,
-0.00759621,
-0.00792678,
-0.00668917,
-0.0124576,
-0.00402986,
-0.00680956,
-0.00444876,
-0.0200851,
-0.0147144,
0.00648859,
0.0101916,
-0.00748548,
-0.0187044,
-0.012619,
0.00074091,
0.0071381,
0.0217874,
0.015563,
0.0258495,
0.0236822,
-0.00275021,
0.000766184,
0.00235293,
-0.00300536,
-9.59E-05,
0.0169079,
0.0224381,
0.0163334,
-0.00512756,
-0.0102261,
6.74E-05,
0.0100566,
-0.00744449,
-0.0163472,
-0.0111479,
-0.0200026,
-0.00617433,
0.00234352,
-0.00561202,
-0.00673433,
0.000922514,
0.00474043,
0.000516775,
-0.00527014,
0.00615724,
0.0144146,
0.00769471,
0.00623231,
0.0132704,
0.0145746,
0.0140353,
0.0108497,
0.00923126,
0.0243976,
0.0294907,
0.025001,
0.0248499,
0.0122111,
0.00553586,
0.0210091,
0.017528,
0.0209854,
0.0187585,
0.0210409,
0.0355979,
0.0298992,
0.0377623,
0.0394392,
0.010488,
0.0146618,
0.0179692,
0.00211556,
0.0115942,
0.0216362,
0.014107,
0.0166686,
0.00940578,
0.0060631,
0.000804028,
-0.0107515,
-0.0106512,
-0.0100714,
-0.00610918,
-0.0156041,
-0.0175276,
-0.0280708,
-0.0241001,
-0.026822,
-0.0200601,
-0.00916025,
-0.00836798,
-0.0144507,
-0.0222333,
-0.00275095,
-0.0132923,
-0.0169616,
-0.0106845,
-0.00562667,
-0.0108496,
-0.0125964,
-0.00520137,
-0.00937591,
-0.0165406,
-0.0150408,
-0.0058443,
-0.0075579,
-0.00415718,
0.0011249,
-0.000446713,
0.00699061,
0.00256472,
0.00294725,
-0.00626108,
-0.0164803,
-0.00116765,
0.00343035,
-0.00964221,
-0.00575194,
0.00280448,
-0.00290478,
-0.000869567,
0.00146746,
0.00135636,
-0.000392927,
-0.00313261,
-0.00200774,
-0.00106422,
0.00163927,
0.00027591,
-0.00240473,
-0.00122617,
0.00186719,
-0.0123851,
-0.00417734,
0.00107947,
-0.00260725,
-0.00100234,
0.00362228,
-0.00233394,
-0.005609,
-0.00475504,
0.00264603,
0.00622726,
0.00338869,
-0.00458639,
-0.0159298,
-0.0151185,
-0.0159206,
