raw data,heart rate
-0.300472,79.511
-0.283556,79.5673
-0.271631,83.5187
-0.251294,81.4995
-0.222255,78.1368
-0.192795,76.8209
-0.172554,82.1486
-0.147091,79.515
-0.120306,74.5746
-0.09496,76.8009
-0.0728405,76.9909
-0.0401926,512.07
-0.0204643,187.221
-0.00474387,171.67
0.0150764,81.9287
0.0244526,84.7171
0.0242175,80.8222
0.0279917,85.8548
0.0298146,82.8698
0.0308478,84.4995
0.0329009,88.3853
0.0447424,87.1083
0.0544265,85.1505
0.0521104,85.5779
0.050929,86.6704
0.0533348,85.0769
0.048347,86.5608
0.0473141,87.3312
0.0358521,84.183
0.0314542,86.8889
0.0236148,85.4206
0.0133157,85.6413
0.0131874,88.2517
0.00300755,90.5428
0.0094811,86.1719
0.0110867,85.8517
0.00329299,89.1321
0.00648845,92.6912
-0.0013385,88.9892
0.00133096,86.5816
0.00753322,87.6979
0.00755295,92.5464
0.00769525,91.5579
0.00698272,88.3419
0.00379053,88.2012
0.00701265,85.1016
0.00644755,85.2793
0.0090476,87.8425
0.00558274,84.6551
0.00850807,84.7037
0.00535764,81.1591
0.00713081,83.6302
0.00508438,83.4973
0.00520177,87.5176
0.00974466,84.1544
0.0104563,84.4995
0.00878971,85.6334
0.0141278,88.2163
0.0112559,86.3186
0.00308398,90.4209
0.000937338,92.5489
0.00546065,88.9893
0.00661809,83.1398
0.00165613,82.6276
-0.00586751,88.0711
6.56E-05,89.9156
0.00116665,86.8545
2.24E-05,85.5302
0.00536925,89.2017
-0.00334727,90.0735
0.00850155,86.0166
0.0035314,82.2226
-0.00272452,81.7613
-0.0008824,77.5573
-0.00275767,79.0519
-0.00592493,82.6219
-0.0111952,87.9772
-0.00109298,85.8854
0.00140059,85.6023
0.00566988,84.8934
0.00540213,84.3836
-0.00749542,86.327
-0.00502798,88.3531
-0.00742513,86.4419
-0.00028538,86.8183
0.0011785,88.9367
0.00246769,89.7653
-0.00192082,86.2793
-0.00454377,83.5228
-0.00572558,85.3554
0.00149162,86.9125
0.00335188,84.7625
-0.000469076,85.6169
-0.00624979,89.4214
-0.00120647,89.5476
0.00155238,89.8199
-0.00477046,91.9855
-0.00399275,90.0705
0.00598883,90.3614
-0.000232965,93.1372
-0.00760861,90.5176
-0.00691432,90.2382
-0.00462349,94.7133
0.00088184,92.5383
0.00102457,90.6451
0.00276303,89.411
-0.0010234,92.032
-0.00386181,86.4351
-0.0135201,88.9142
-0.00685709,89.8836
-0.0113836,88.7747
-0.00703305,87.3403
-0.00286801,87.2382
0.00127327,84.6095
0.00296326,87.7742
0.00123086,87.7067
0.000768899,87.5237
-0.000202921,88.8808
-0.00540684,91.0766
-0.00675176,92.0588
-0.00229605,90.0582
-0.0078991,89.8489
-0.00155281,91.5936
0.00881286,88.3227
0.00296909,87.6024
-0.00193094,88.3765
-0.00637323,89.7315
0.00485345,88.0437
0.00100142,85.126
-0.00563096,83.3885
-0.0090566,87.665
-0.00620121,93.3167
-0.00175818,93.2074
0.000873808,91.157
0.000561758,87.9997
-0.00463637,91.7523
-0.00679101,91.4698
-0.00994768,87.8988
-0.00957488,87.3482
-0.00842315,88.8186
-0.00989015,86.526
-0.00960564,85.9443
-0.00805397,89.5308
-0.00491014,89.6149
-0.000172585,88.4667
-0.00225452,90.1496
-0.00290073,89.8222
0.00193671,87.3861
-0.00100958,85.6908
-0.00332191,86.9414
0.000504712,89.6615
0.00367659,86.3476
-0.00852931,84.8056
-0.0150721,85.8805
0.00606018,88.6519
0.0113397,87.6441
-0.00100998,90.5937
0.00720614,91.6006
0.0183527,90.5158
0.0104251,90.0196
-0.00896695,91.8974
-0.0129563,90.997
-0.00995428,87.9616
-0.00804838,93.0068
-0.0075586,86.3588
0.00592125,85.525
0.0223614,87.4304
0.0296283,84.9109
0.0201192,84.8116
0.0184353,86.324
0.00872057,86.377
-0.00675635,87.8068
-0.0080877,90.574
0.0011693,93.2586
0.0223122,91.8509
0.0310698,93.19
0.0187065,95.3579
0.0124122,91.9011
0.0112189,89.373
0.00396396,89.3179
0.00392031,93.0666
-0.00153106,87.8177
0.00751821,86.6441
0.00809247,89.7416
0.00278495,90.2727
0.0111809,89.915
0.0128946,91.2621
0.00356127,93.882
0.0223479,93.8528
0.00905963,93.0888
-0.00846403,93.8942
0.00328029,95.848
0.00772495,94.6777
0.00762632,94.1688
0.0107574,94.7076
0.0232728,95.8906
0.0283477,95.5129
0.0274433,95.6742
0.0320542,95.6348
0.0250309,97.2635
0.0225603,96.6681
0.0212477,95.895
0.039059,97.2244
0.0449262,98.3622
0.0199176,96.5357
0.0169525,96.3324
0.0289116,96.8422
0.0447911,97.7109
0.0372421,95.5119
0.0329655,93.2753
0.0316363,94.1556
0.0290454,91.9268
0.0190409,90.5517
0.0111677,91.4229
0.0128666,93.6634
0.0121585,92.2842
0.022309,93.4342
0.0179067,94.6908
0.00137395,95.739
0.000863487,95.7684
0.0291541,96.0074
0.0185962,97.25
0.00850775,97.6175
0.0255841,95.4825
0.0212707,95.052
0.00980174,95.2296
0.0141501,96.4736
0.0239519,94.2059
0.0285197,95.1533
0.018784,96.7886
-0.00688055,94.993
-0.0174107,94.4681
-0.0325568,96.321
-0.0206084,94.8916
0.0156754,93.1934
0.0270912,93.3204
0.045996,96.33
0.0388833,99.7662
0.0204705,98.5864
0.00450399,97.3992
-0.0158221,96.3272
-0.0274091,98.4604
-0.0123037,98.7126
-0.0090305,98.4184
0.00295268,98.0346
0.0150591,99.0678
0.00365195,100.369
-0.0129923,100.657
-0.00866771,97.1889
-0.0118657,96.4722
-0.00754624,97.7525
0.00735592,94.7694
-0.00325595,94.8432
-0.0168968,95.376
-0.040372,95.4226
-0.018992,95.82
-0.0225117,97.83
-0.0187346,98.4586
-0.0167291,97.29
-0.0279905,97.5394
-0.0319717,98.6301
-0.0351497,99.0631
-0.018594,98.7263
-0.0190418,100.024
-0.0436151,100.176
-0.0478121,99.6645
-0.0376206,850.51
-0.0366665,822.667
-0.0239107,687.892
-0.0155336,481.979
-0.0176818,229.855
-0.0151401,769.795
-0.026029,210.535
-0.0218624,971.059
-0.0113741,344.467
0.00625031,520.998
-0.00636558,588.132
-0.0094066,432.903
-0.0119292,384.606
-0.0171638,653.789
-0.0160422,757.789
-0.000952633,110.355
-0.00538726,95.9414
-0.00959749,49.7753
-0.00807558,99.1375
0.00290589,1147.01
0.0100823,106.294
-0.003695,98.9123
-0.016251,101.673
-0.00978028,100.984
-0.00207951,100.917
-0.0039871,101.495
-0.0104827,103.81
-0.00570359,103.359
-0.0111695,103.558
0.00176602,104.029
-0.00217226,105.951
-0.0190977,106.292
-0.0150241,104.869
-0.00823525,103.14
-0.0022891,102.78
0.00734781,104.77
0.00174384,104.905
0.00355684,103.297
0.00405007,102.522
0.0100221,104.354
0.000437273,103.976
-0.00690187,102.032
-0.0131265,102.382
-0.00690732,102.401
-0.0185045,100.967
-0.0016344,100
0.0100442,100.408
0.0102212,101.474
0.00650318,100.161
0.0116754,101.847
-0.00177216,103.1
-0.0147433,102.449
-0.00943673,102.047
0.00638017,102.228
0.0139356,102.725
-0.0150902,101.708
-0.00755151,100.699
0.0203687,101.126
0.0123542,101.613
-0.0128234,98.6848
-0.0134135,99.2848
0.0047575,100.409
0.000746644,100.488
-0.0105589,99.4466
-0.00278209,100.697
0.00562768,101.545
0.00641631,102.371
-0.00268281,102.339
-0.000633185,103.626
0.00463464,104.905
-0.00468131,104.413
-0.00463157,105.481
-0.0120471,106.254
-0.0104223,107.081
-0.00169982,105.971
-0.0108017,106.477
-0.0147491,106.169
-0.00302346,104.894
0.00527928,104.631
0.000125838,104.873
0.0171182,106.578
0.0104598,106.373
0.00215933,106.495
0.00257457,106.807
-0.00625647,108.048
-0.0251419,107.763
-0.03191,107.183
-0.0152317,108.557
0.0127576,109.379
0.017267,110.003
0.00137291,109.46
-0.0166362,110.635
-0.0121606,112.474
-0.012385,110.806
-0.00144837,111.018
0.0038215,110.785
-0.012756,111.593
0.0140375,111.041
-0.00609544,109.84
-0.00340561,108.933
0.0141793,110.092
0.0113824,109.539
0.00924291,108.27
0.0165005,107.785
-0.00471111,107.163
0.00839767,107.616
0.000482733,107.561
0.012325,106.808
0.009941,107.568
0.0179287,108.158
0.0281966,109.329
0.0242383,109.482
-0.00980554,110.248
-0.0263582,110.786
-0.018947,111.281
0.00174699,110.699
-0.0121776,109.654
-0.0179991,109.556
-0.0129668,113.695
0.0132755,109.951
-0.0179207,108.422
0.00445748,107.358
0.0155169,53.8248
-0.0088552,105.102
0.00610486,103.62
-0.00902715,106.327
-0.0113675,105.928
-0.00528588,104.925
0.0198979,104.823
0.0196809,106.722
0.0175278,106.077
0.00178647,106.295
-0.00181291,107.678
0.00753831,108.549
-0.000745646,109.225
-0.0117772,107.63
-0.00629932,107.872
0.0174675,108.081
0.0250537,107.805
0.0119276,108.375
-0.00589035,106.326
-0.00752476,103.912
0.00767131,101.347
-0.000920958,101.883
-0.0182518,52.4752
-0.0276532,105.374
-0.0221666,104.082
-0.0171653,108.37
-0.00261605,105.996
0.0075644,108.192
0.00900704,109.691
0.0133638,108.944
-0.0188505,112.611
-0.0190209,109.027
0.000230644,110.341
0.022722,111.287
0.0257978,109.387
0.012695,37.7566
-0.001698,111.393
-0.0165718,110.595
0.00141006,109.895
0.00272849,109.76
0.00777352,110.766
0.0213996,111.844
0.0148011,111.198
-0.00878616,112.92
-0.0131137,113.115
3.73E-05,112.301
0.00639189,111.53
-0.00230444,111.322
0.00323773,111.011
0.00456876,112.074
-0.00154927,110.706
0.0015504,111.143
0.00528959,110.166
0.0151691,114.01
-0.00360505,111.611
-0.0317766,56.8131
-0.0217692,112.121
-0.000770764,112.24
0.0130937,111.974
-0.00396476,110.21
0.0022658,115.026
-0.0292233,114.409
-0.0239912,111.206
0.0121368,56.8651
0.00423578,113.666
-0.0101494,116.227
-0.000432322,112.543
-0.00512626,113.045
-0.0143583,117.147
-0.000292401,113.454
0.00584047,115.146
0.00986794,117.592
0.0176176,113.27
0.00530277,57.7471
0.00609973,114.664
-0.00118914,115.051
-0.0168859,114.391
-0.0120219,114.035
-0.00358779,113.293
0.0126252,117.547
0.0183317,111.527
0.0256694,111.963
0.0191037,111.902
0.0148176,112.358
-0.0100061,111.622
-0.0111886,111.795
-0.00167631,112.108
-0.00606703,114.496
0.00185474,112.92
0.00817135,116.158
0.0043053,113.935
0.00595308,114.551
-0.0033925,115.059
-0.00738778,113.504
-0.0049009,115.167
-0.00758434,113.119
-0.00346386,113.784
-0.00678119,112.865
-0.000545441,115.457
-0.00482408,110.298
0.00190497,111.85
0.0130059,112.199
0.0273451,
0.0140126,
0.0087715,
0.00352945,
-0.0175735,
-0.0422393,
-0.0322779,
-0.00354943,
0.00656301,
0.0208757,
0.0235283,
0.0111208,
-0.00275491,
-0.00369819,
-0.00465721,
-0.00223583,
-0.00355687,
0.00221946,
0.0034388,
-0.00346205,
-0.00165622,
-0.000856678,
-0.00317061,
-0.00860158,
-0.00517802,
-0.000994954,
-0.00123452,
-0.00347295,
0.00102486,
-0.00311808,
-0.011212,
-0.0164633,
-0.0187128,
-0.0156973,
-0.0176141,
-0.0110332,
-0.0090637,
-0.013001,
-0.0126503,
-0.0120568,
-0.0141327,
-0.0145072,
-0.0120456,
-0.0112764,
-0.0202881,
-0.0233798,
-0.0152073,
-0.0130816,
-0.00259524,
0.00768015,
-0.00700953,
-0.00684913,
0.000884975,
-0.00645707,
-0.0162468,
-0.00824988,
0.00944812,
-0.0121807,
-0.00856189,
0.00040502,
0.0213598,
0.045083,
0.0285329,
0.0176721,
0.00619299,
0.00267559,
0.0108448,
0.0192134,
0.0111156,
0.00710534,
6.43E-05,
-0.00434197,
0.0057017,
0.0109395,
0.0076512,
-0.000277636,
-0.00782842,
-0.00755499,
-0.00447165,
-0.00423977,
-0.00572373,
-0.00212365,
-7.11E-05,
-0.00328434,
-0.00318272,
0.00800562,
0.00843834,
0.0126843,
0.0116857,
0.0124056,
0.0271475,
0.0172389,
0.0160205,
0.0139483,
0.0102169,
0.020203,
0.0210918,
0.0295537,
0.0421919,
0.0381318,
0.0330712,
0.0287896,
0.0194606,
0.0139827,
-0.00593286,
-0.0145587,
-0.0112513,
0.0115907,
0.0322773,
0.0336491,
0.0296169,
0.0289127,
0.0150228,
0.00654958,
-0.00638627,
-0.00194638,
0.000603427,
0.00481479,
0.00679527,
0.0107438,
0.0071041,
0.0052538,
0.000491821,
-0.0168993,
-0.0211965,
-0.0137016,
0.00250402,
-0.00834954,
-0.0140644,
-0.0204716,
-0.013173,
-0.00625174,
-0.0149229,
-0.0154009,
-0.00865892,
-0.012338,
-0.0147877,
-0.021511,
-0.00710121,
0.00254947,
-0.00582814,
-0.0120047,
-0.0114478,
-0.0182347,
-0.00954615,
0.00830869,
0.00992508,
0.0025875,
-0.0018884,
-0.00786961,
-0.0106608,
-0.0128491,
-0.0142702,
-0.000843257,
0.0114129,
0.0106868,
0.00685156,
-0.00138587,
-0.0111112,
-0.00274218,
-0.0110705,
-0.00389182,
0.00131731,
-0.00337216,
-0.00177721,
0.00383669,
-0.00821537,
-0.00912849,
-0.00618541,
0.00417326,
0.00997126,
-0.00594645,
-0.00749418,
-0.00470729,
-0.0111818,
-0.0133272,
-0.00337937,
-0.0020563,
0.0016415,
0.0098123,
0.0213171,
0.0112274,
-0.0157716,
-0.0363857,
-0.0355747,
-0.0162623,
0.00794651,
0.0160015,
0.00497625,
-0.0096082,
-0.00737682,
-0.0186071,
-0.0292363,
-0.0127417,
-0.00862578,
-0.00719568,
-0.00798232,
-0.0215202,
-0.0314795,
-0.0346372,
-0.0426565,
-0.0510159,
-0.0521168,
-0.0487144,
-0.0480919,
-0.0581762,
-0.0729729,
-0.0817901,
-0.0893051,
-0.0911276,
-0.0784928,
-0.0787181,
-0.0814098,
-0.0695337,
-0.0658599,
-0.0672608,
-0.0562016,
-0.0436242,
-0.036583,
-0.0333897,
-0.0231296,
-0.0188358,
0.000928799,
0.0325186,
0.0578849,
0.0740274,
0.0866819,
0.113879,
0.138045,
0.165223,
0.206795,
0.2306,
0.241852,
0.25401,
0.279875,
0.289516,
0.285194,
0.251845,
0.208861,
0.165754,
0.132995,
0.141596,
0.229196,
0.306551,
0.286189,
0.185494,
0.0949906,
0.0225042,
-0.0181565,
-0.0313099,
-0.048301,
-0.0562957,
-0.0613928,
-0.0991405,
-0.182913,
-0.25876,
-0.254113,
-0.207575,
-0.183143,
-0.186875,
-0.193585,
-0.21805,
-0.244935,
-0.24158,
-0.236648,
-0.228205,
-0.209452,
-0.172611,
-0.139185,
-0.133419,
-0.143301,
-0.150988,
-0.123255,
-0.0862633,
-0.0606691,
-0.0379947,
-0.0165574,
0.00306126,
0.0188242,
0.0175277,
0.0251294,
0.0391035,
0.0599967,
0.0601946,
0.0645115,
0.0734839,
0.060457,
0.04554,
0.0261815,
0.0084025,
-0.00097137,
0.0393501,
0.0978307,
0.111212,
0.0764307,
0.0371888,
0.0265036,
0.027547,
0.0273717,
0.0130282,
0.00603405,
0.00185091,
0.0101798,
0.01321,
0.011093,
0.0112616,
0.00237667,
-0.000199683,
0.000932,
-0.00119788,
0.00796447,
0.0196703,
0.0232296,
0.018148,
0.00555024,
0.00306816,
-0.0184337,
-0.0285377,
-0.0126845,
0.0116441,
0.0217885,
0.0308535,
0.0266993,
-0.00524079,
-0.0130221,
-0.0141234,
-0.00385311,
0.00743085,
0.0130926,
0.0090857,
0.0122393,
0.0107391,
0.00312782,
-0.00444615,
-0.0160297,
-0.00993926,
0.0177074,
0.0324393,
0.0290761,
0.0215327,
0.0106158,
-0.00335376,
-0.005167,
-0.00712591,
-0.0225036,
-0.0220128,
0.00696528,
0.0273687,
0.0338532,
0.0170292,
-0.00708652,
-0.0409251,
-0.037075,
-0.0175485,
0.00875031,
0.0225607,
0.0123895,
-0.00186145,
-0.0171204,
-0.0225474,
-0.0134517,
-0.00504725,
0.0117268,
0.0197152,
-0.0257471,
-0.0377599,
-0.0179419,
-0.00335141,
-0.0155114,
-0.0175247,
0.00986668,
0.00436041,
0.00366335,
-0.00177094,
-0.0114555,
-0.0101768,
-0.00456824,
0.0006791,
-0.00381897,
-0.0120731,
-0.00498588,
-0.00521148,
-0.0111301,
-0.00607197,
0.00575659,
0.00817404,
0.00733079,
0.00630231,
0.00557468,
0.00822298,
0.00469962,
0.00617064,
0.0026026,
-0.00147371,
-0.00913352,
-0.010506,
-0.00850493,
-0.0133262,
-0.0108919,
-0.0042777,
0.000203977,
-0.00100817,
0.000337925,
-0.00676311,
-0.00871888,
0.000457158,
0.00134476,
-0.00994085,
-0.011392,
0.000874336,
-0.00922986,
-0.0132236,
-0.00576686,
0.00116478,
0.00109818,
-0.00240637,
-0.00190455,
-0.00613453,
-0.00198759,
-0.000790627,
-0.000114956,
0.0016593,
-0.011325,
-0.0298412,
-0.0144009,
0.00473747,
0.0128515,
0.0101071,
0.00476241,
-0.0138579,
-0.0279467,
-0.0164601,
0.00377931,
0.014331,
0.016498,
-0.000229252,
-0.0175548,
-0.0171821,
0.00267967,
0.0101614,
0.0106148,
0.00858255,
-0.0020732,
-0.000465006,
0.00144354,
0.00366387,
0.0155931,
0.0268849,
0.0383588,
0.0438746,
0.0406903,
0.0475855,
0.0480611,
0.0238366,
0.0276725,
0.0467885,
0.0520585,
0.0344218,
0.0421035,
0.0556838,
0.043605,
0.0349935,
0.0426301,
0.0501662,
0.0470782,
0.0398334,
0.00884497,
-0.00964444,
-0.0201727,
-0.0128754,
-0.00361848,
0.00759081,
0.0184799,
0.0109173,
0.00253542,
0.00319924,
0.00626765,
0.00380516,
0.00923777,
0.0159252,
0.00735593,
0.007961,
0.0143373,
0.0159616,
0.020597,
0.0269447,
0.0290126,
0.0255018,
0.00281414,
-0.00312928,
0.00459202,
0.0193381,
0.0242738,
0.0135678,
0.000646118,
0.0112333,
0.0111776,
0.000796197,
-0.00535299,
-0.00598222,
-0.00676242,
-0.00138941,
0.00689308,
0.00205695,
-0.00522443,
-0.0105889,
-0.0135581,
-0.0115498,
-0.0154131,
-0.0101049,
-0.00776857,
-0.00776292,
-0.00297347,
-0.00635195,
-0.00641391,
-0.00963738,
-0.0098775,
-0.0134498,
-0.0197108,
-0.0157179,
-0.0152297,
-0.0150123,
-0.0173338,
-0.0186363,
-0.0134193,
-0.0144687,
-0.0170928,
-0.0170849,
-0.012989,
-0.0156481,
-0.0113067,
-0.0138817,
-0.0133396,
-0.0129159,
-0.0129336,
-0.0153332,
-0.0126695,
-0.00947202,
-0.0102701,
-0.00826514,
-0.00750067,
-0.0116965,
-0.0163189,
-0.0118177,
-0.012431,
-0.0123302,
-0.0136162,
-0.0138586,
-0.0120835,
-0.0110388,
-0.0105596,
-0.0185724,
-0.0130657,
-0.00390764,
0.00324066,
0.00514566,
0.0027812,
-0.000937064,
-0.00535918,
-0.0150138,
-0.0159813,
-0.0119817,
6.20E-05,
0.010442,
0.00589028,
0.00178188,
0.00426767,
0.000564554,
-0.0070608,
-0.0137527,
-0.00753501,
0.00414879,
-0.00248926,
-0.00883856,
-0.00389448,
0.000529966,
0.000227583,
-0.0107889,
-0.00646521,
-0.00265999,
-0.00503694,
-0.00420978,
-0.00535665,
-0.0130083,
-0.0125999,
-0.00267447,
0.00139492,
0.00187446,
-0.0012352,
-0.00291673,
-0.00300756,
-0.0034488,
-0.00245952,
-0.00408453,
-0.00330629,
3.80E-05,
0.00109441,
-0.00207795,
0.000393345,
-0.000229375,
-0.00184135,
-0.0039561,
-0.00543981,
0.000667065,
0.00481775,
-0.00172542,
-0.00455885,
-0.00335793,
0.00187832,
0.00160304,
-0.00321188,
-0.00722525,
-0.00299217,
-0.00556169,
-0.00457609,
-0.00197653,
0.00369416,
0.00207974,
0.00191949,
0.00402314,
0.000461702,
-0.000349329,
0.000619531,
0.00175041,
0.00110175,
0.00579427,
0.0122681,
0.00919557,
0.00385922,
-0.00730088,
-0.0034088,
0.00145682,
-0.00128055,
-0.00385287,
-0.00803988,
-0.00494067,
-0.00733912,
-0.00876163,
-0.00791304,
0.00248945,
0.0112804,
0.015224,
0.0117317,
0.00436442,
-0.00865725,
-0.0171375,
-0.00990948,
0.000404904,
0.00911332,
0.00505028,
0.00342802,
0.00279052,
0.00297629,
0.00851673,
0.0105115,
0.0100933,
0.0100133,
0.00428363,
0.000995307,
0.00613558,
-0.00376095,
-0.00296435,
-0.00150852,
0.0020623,
-0.00358051,
-0.00662434,
-0.00205333,
0.00349683,
0.00128671,
0.00426173,
0.00287339,
0.000681198,
-0.00150631,
-0.00498432,
-0.00619312,
-0.0044858,
-0.00196648,
0.00201191,
0.00388897,
-0.00216117,
-0.000441328,
-0.000175608,
0.00510918,
0.00602725,
0.00209337,
-0.00151371,
-0.000747949,
-0.00159653,
0.000148499,
0.00222207,
-6.82E-05,
0.0033114,
0.00653585,
0.0021617,
0.00151751,
-0.00364923,
-0.00702657,
-0.00359718,
-0.00177539,
-0.00236966,
0.00238836,
-0.000123221,
0.00174773,
0.00800174,
0.00294207,
-0.000808367,
0.00209107,
0.00241649,
0.00275731,
0.000524383,
0.00591281,
0.0082419,
0.00977705,
-0.000324432,
-0.00442376,
0.00767371,
0.0112079,
0.00375093,
0.0126508,
0.00262862,
-0.0123992,
-0.00136272,
-0.00293923,
-0.00175596,
-0.00121201,
-0.00163177,
-0.00819441,
0.000622373,
0.00151485,
-0.00406115,
0.00525494,
0.00583584,
-0.00215717,
-0.00950045,
-0.00923593,
-0.000878609,
-0.00255359,
-0.00390444,
0.00736721,
0.0147545,
0.00628163,
0.00606032,
0.00761687,
0.00803776,
-0.00254912,
-0.00634348,
-0.0109519,
-0.00844566,
0.00683851,
0.00981664,
0.00307721,
-0.00269994,
-0.00654456,
-0.0045735,
-0.00682067,
-0.00357708,
0.00272931,
-0.00635029,
-0.0125299,
-0.00496751,
0.000477431,
8.26E-05,
-0.00145944,
-0.00172151,
-0.00474966,
-0.00180557,
0.000475428,
-0.00260013,
-0.0019705,
-0.00135839,
-0.00125012,
0.00353179,
-0.000930928,
-0.00169347,
0.0048028,
-0.000539453,
-0.00105402,
0.000505855,
0.000253957,
0.00595542,
-0.00148807,
-0.00427839,
-0.00549322,
-0.00141355,
-0.00175206,
-0.00602626,
-0.0147246,
-0.0103725,
-0.00252031,
-0.00282202,
-0.00351193,
-0.0110648,
-0.0209507,
-0.00646896,
-0.0080767,
-0.00781087,
-0.00680349,
-0.0228542,
-0.0253757,
-0.022457,
-0.0184644,
-0.0133944,
-0.0166289,
-0.0114954,
-0.0119062,
-0.0121924,
-0.0138051,
-0.00848586,
-0.000112985,
0.000800137,
0.00348295,
0.0115007,
0.00899932,
0.00536915,
0.00546919,
0.0102741,
0.0225382,
0.0260815,
0.0312632,
0.0275665,
0.0102997,
0.00891627,
0.012089,
0.012374,
0.0125227,
0.0109166,
0.00237729,
-0.00678407,
-0.012198,
-0.017748,
-0.0182549,
-0.0140414,
-0.00979873,
-0.0134545,
-0.0161054,
-0.0127315,
-0.00624185,
-0.0048849,
-0.00460975,
0.00527008,
0.00615091,
-0.000989308,
-0.00384431,
0.00519954,
0.00397998,
0.0130572,
0.0283939,
0.0367283,
0.032728,
0.0299943,
0.0246505,
0.0278692,
0.0257393,
0.0218261,
0.0185614,
0.020156,
0.0261266,
0.0236902,
0.0277346,
0.030653,
0.0272644,
0.0229056,
0.024692,
0.0274393,
0.0274183,
0.0257536,
0.0269674,
0.0245763,
0.0279556,
0.0301352,
0.017995,
0.00916157,
-0.00188003,
-0.00866974,
-0.00717491,
-0.00193965,
-0.000582506,
-0.00570504,
-0.00777129,
-0.0113236,
-0.0128123,
-0.017911,
-0.0297032,
-0.0378398,
-0.0319707,
-0.0216495,
-0.0229018,
-0.0279635,
-0.0306879,
-0.0234706,
-0.0169929,
-0.015462,
-0.0127272,
-0.00716846,
-0.00218147,
-0.00666349,
-0.00604642,
0.000644833,
-0.00357719,
-0.00349614,
-0.00299119,
-0.00432319,
-0.00182356,
0.0028939,
0.00950981,
0.00475835,
-0.00132355,
-0.00225949,
-0.00209225,
-0.00324672,
0.00625438,
0.0160558,
0.0169347,
-0.000494087,
-0.00435006,
-0.00337174,
-0.0085635,
-0.0128054,
-0.00606482,
-0.00209801,
-0.00252436,
-0.00297583,
-0.00377758,
-0.000723734,
-0.00514401,
-0.00878724,
-0.0113319,
-0.00905855,
-0.00763367,
-0.00706034,
-0.00281077,
-0.00217099,
-0.00239427,
-0.00186723,
-0.0125706,
-0.00975123,
-0.00264027,
-0.00111716,
-0.00373439,
-0.00920726,
-0.00524787,
0.00149685,
0.00195153,
-0.00147057,
-0.00506254,
-0.00851679,
-0.00877546,
-0.00941634,
-0.0130467,
-0.0170958,
-0.018831,
-0.0250673,
-0.0303203,
-0.0313706,
-0.0267773,
-0.0303099,
-0.0549266,
-0.0617987,
-0.0633936,
-0.0694243,
-0.0727702,
-0.0719705,
-0.0720327,
-0.076503,
-0.0916737,
-0.0992335,
-0.0897661,
-0.0820073,
-0.0731638,
-0.0643206,
-0.0704737,
-0.0705265,
-0.0548667,
-0.0494794,
-0.0382701,
-0.0342699,
-0.0223489,
-0.0106782,
0.0123149,
0.0387845,
0.0615307,
0.0765886,
0.0956874,
0.120033,
0.153255,
0.205447,
0.243814,
0.258854,
0.268243,
0.294016,
0.290554,
0.286021,
0.280408,
0.248938,
0.201451,
0.190498,
0.209228,
0.248189,
0.293549,
0.290362,
0.228176,
0.151551,
0.0819003,
0.0291408,
-0.010084,
-0.0394573,
-0.0445389,
-0.0442247,
-0.0674426,
-0.146839,
-0.2144,
-0.25567,
-0.258128,
-0.248572,
-0.221097,
-0.215264,
-0.219812,
-0.226216,
-0.23824,
-0.248794,
-0.262267,
-0.262969,
-0.240539,
-0.223929,
-0.207288,
-0.187833,
-0.157589,
-0.13544,
-0.107735,
-0.0818542,
-0.0616139,
-0.0514731,
-0.0361455,
-0.00616892,
0.021218,
0.0410751,
0.0505647,
0.0547767,
0.0565327,
0.0578415,
0.0632974,
0.0616311,
0.0629296,
0.0674034,
0.073154,
0.0781157,
0.0790848,
0.0713955,
0.0663981,
0.0629773,
0.0540251,
0.0479651,
0.0402702,
0.0366051,
0.0371288,
0.0275951,
0.0167346,
0.0148939,
0.0167209,
0.0170239,
0.00721175,
0.00426123,
0.00912792,
0.0109538,
0.00972339,
0.0131891,
0.0132448,
0.00922903,
0.00468836,
0.000581031,
0.00191178,
0.00753679,
0.00498523,
0.00298651,
-0.000895112,
-0.00440158,
-0.00381757,
-0.000443598,
0.00118397,
0.00348802,
-0.000493945,
0.00137173,
0.000990813,
0.000626417,
0.00804416,
0.00495582,
-0.00378528,
-0.00863263,
-0.00780723,
-0.00292829,
0.00325226,
0.00749708,
0.00640707,
0.0122803,
0.00958074,
-0.012373,
-0.012316,
-0.000282115,
0.00220456,
0.0119731,
0.0136489,
0.00803992,
-0.00873885,
-0.00836897,
8.59E-05,
-0.00619323,
-0.0113488,
-0.00615814,
-0.00324533,
0.00790682,
0.00852478,
0.00653648,
-0.00145806,
0.00250239,
-0.00504865,
-0.0186106,
-0.00808502,
-0.0058388,
-0.00928401,
-0.00321016,
0.00137738,
0.00965602,
0.00819319,
-0.0274478,
-0.00567355,
-0.00319058,
-0.00268384,
-0.00690464,
0.00356613,
0.00396894,
-0.016053,
-0.00876039,
-0.0104021,
-0.000749299,
0.00579613,
-0.00581505,
-0.0130881,
-0.0063124,
-0.000213415,
-0.0119438,
-0.00946088,
-0.00781355,
0.00481251,
0.0132065,
-0.000593658,
-0.00842912,
-0.000913253,
-0.00151037,
0.00207891,
0.00224911,
0.00401717,
0.000586527,
-0.00173149,
-0.00601163,
-0.0018971,
0.00608072,
0.00627001,
-0.00132958,
-0.00361044,
-0.00251488,
0.00389866,
-0.0029803,
-0.0116623,
-0.0174546,
-0.00967659,
-0.0109841,
-0.00114861,
0.00542775,
0.00211061,
0.0102619,
-0.00749934,
-0.0168646,
-0.0175087,
-0.0139611,
-0.00233579,
0.0147801,
0.00761297,
-0.0019878,
-0.00447141,
-0.00290937,
-0.00716971,
-0.00640639,
0.00229725,
0.00308612,
0.00535028,
-0.00207212,
-0.000728484,
0.00890013,
0.0116065,
0.00690954,
0.00193435,
0.0062333,
0.011396,
0.00885023,
0.0136506,
0.0078388,
-0.00404928,
0.0111655,
0.00947072,
0.00494996,
0.0189689,
0.0154448,
0.0175233,
0.0153376,
0.00953955,
0.00693038,
0.00961839,
0.0122678,
0.0100283,
0.0140706,
0.0112909,
0.0120509,
0.0207241,
0.0212941,
0.0121469,
0.0099549,
0.0194151,
0.0269381,
0.0205523,
0.0140169,
0.0159119,
0.0260789,
0.0296326,
0.021559,
0.02484,
0.0299298,
0.032946,
0.0215913,
0.0188458,
0.0187224,
0.0181463,
0.0294159,
0.0290654,
0.0190352,
0.0203609,
0.0247869,
0.0266463,
0.0286867,
0.0252402,
0.0218045,
0.0196693,
0.00685406,
0.0085979,
0.0291021,
0.0282268,
0.0224712,
0.0126371,
0.0176503,
0.0146852,
0.00179128,
-2.61E-06,
0.017386,
0.0168894,
0.00998811,
0.000232815,
0.00573856,
0.00432537,
-0.00563473,
-0.00505589,
0.00216834,
-0.000316246,
-0.00782624,
-0.00435025,
0.00233468,
-0.00477245,
-0.00237755,
-0.00780486,
-0.0128097,
-0.0172385,
-0.0270868,
-0.0156608,
-0.0106402,
0.0112713,
-0.00511604,
-0.0125547,
-0.024644,
-0.0310321,
-0.0144086,
-0.0152344,
-0.0247749,
-0.0263654,
-0.0153159,
-0.01299,
-0.0226263,
-0.0188197,
-0.0200194,
-0.021857,
-0.0240089,
-0.0195165,
-0.019707,
-0.0200485,
-0.0205395,
-0.0221494,
-0.0180794,
-0.0141531,
-0.0136045,
-0.0159452,
-0.0111389,
-0.0038753,
-0.00402243,
-0.0141659,
-0.0255631,
-0.0124798,
-0.0124558,
-0.0115697,
0.00102509,
-0.0114018,
-0.0179371,
-0.0125888,
-0.00231091,
-0.00797466,
-0.0114509,
-0.00658587,
-0.0119851,
-0.0176108,
-0.00986533,
-0.00622157,
0.00303431,
-0.000218191,
-0.00545629,
-0.00830676,
-0.00650027,
0.00109957,
0.0031683,
0.00262206,
-0.00911291,
0.00890846,
0.0165557,
-0.00202769,
-0.000557072,
-0.00249533,
-0.00217674,
0.00865344,
0.00734078,
0.00133045,
-0.00678737,
-0.00180022,
0.00205169,
0.00363592,
-0.000283852,
-0.00469095,
-0.00877635,
-0.000888749,
-0.00206604,
-0.000818995,
0.000262537,
0.0116966,
0.00127883,
-0.0141617,
-0.00776259,
-0.00104793,
0.00889407,
0.00248123,
-0.00572322,
0.00208048,
0.0184471,
-0.00290724,
-0.00534419,
-0.0063423,
0.00235042,
-0.00208473,
-0.00168602,
0.000309069,
-0.00451534,
-0.0142181,
-0.00873316,
0.00222926,
-0.00188313,
-0.0100662,
-0.00419544,
-0.00530802,
-0.007416,
-0.00776774,
-0.00539154,
-0.00303751,
-0.00232283,
-0.0108521,
-0.00192254,
0.00699013,
0.000675773,
-0.009536,
-0.00988811,
-0.001997,
0.00831341,
0.00356767,
0.00415781,
0.0015088,
-0.00437763,
0.00333019,
0.00391998,
0.00305714,
0.00931987,
0.00992505,
-0.000790133,
-0.0100404,
0.000623453,
0.0108119,
0.00774125,
0.00160711,
-0.00386808,
-0.00512379,
-0.00393987,
0.00486232,
0.0101169,
0.0103674,
-5.00E-05,
-0.00187776,
0.000838369,
-0.0042004,
-0.00178229,
-0.00372065,
-0.00629338,
0.00554947,
-0.00848693,
-0.00195813,
-0.00739126,
0.00369535,
0.0157664,
0.012963,
0.011468,
-0.00312114,
-0.00329371,
-0.00361404,
0.00756951,
0.00355555,
0.0115311,
-0.00540037,
-0.000632627,
0.00188396,
0.00150211,
0.00291483,
0.0113006,
0.00497466,
-0.0034405,
-0.00552981,
0.000163209,
-0.00205861,
0.000589113,
-0.00435423,
-0.00378061,
0.00231003,
-0.00485419,
0.00175183,
0.00141424,
0.002548,
0.00774226,
0.0102001,
0.0021537,
-0.00361295,
0.000505698,
0.00253402,
0.00829728,
0.00630516,
0.00222094,
0.00284058,
0.00573585,
0.00524191,
0.0128475,
0.00654312,
-0.00962659,
-0.011065,
0.00157943,
0.002737,
-0.00176762,
-0.00562421,
-0.00559725,
0.00219617,
-0.00214956,
0.00466783,
-0.00162643,
-0.012618,
-0.00419514,
-0.00710552,
-0.0113162,
0.00777021,
0.00419466,
-0.000843663,
-0.00653569,
0.00152116,
0.00487864,
0.00321315,
0.00121778,
0.00488021,
-0.00732245,
-0.00512846,
0.0164789,
0.00231667,
-0.00748203,
0.00763482,
-0.0071922,
-0.00325326,
-0.00401339,
-0.00817818,
0.00545149,
0.0106594,
0.000810299,
-0.00419138,
-0.0150266,
-0.000786789,
0.00778052,
0.00274538,
-0.0073158,
-0.00654443,
0.000689745,
0.000469151,
-0.00138087,
-0.00437527,
0.00168063,
0.000441881,
-0.000971539,
-0.00126543,
-0.000116552,
-0.00108552,
-0.000774413,
0.00275825,
-0.00100678,
0.000228824,
-0.00809993,
-0.00301425,
-0.00717061,
-0.00519623,
0.00404081,
-0.0144151,
-0.00716216,
0.00443728,
0.0098631,
0.000213353,
-0.0115674,
-0.000235918,
-0.00123415,
-0.00663458,
0.00654014,
0.00592242,
-0.00784267,
0.00246277,
-0.00167837,
-0.0100733,
-0.00735062,
-0.00484039,
-0.00157361,
0.00212427,
-0.00103053,
-0.011363,
-0.00751282,
-0.0203897,
-0.0205414,
-0.0108806,
0.00195847,
-0.0153596,
-0.0139616,
-0.010352,
-0.0113249,
-0.0159069,
-0.0142231,
-0.013876,
-0.0223057,
-0.0110268,
-0.0256702,
-4.42E-05,
0.0215149,
0.00292407,
-0.00904439,
-0.0108262,
0.00939607,
0.00987456,
0.00550073,
0.0116511,
0.0223407,
0.0231691,
0.0188311,
0.0177431,
0.00744548,
0.0148022,
0.027515,
0.016455,
0.00136541,
0.00328365,
-0.00271161,
-0.0085289,
-0.0161099,
-0.010404,
-0.00629851,
-0.0194893,
-0.010165,
0.000962725,
-0.0118335,
-0.0343095,
-0.0248713,
-0.00244785,
-0.00506305,
0.000140125,
0.0075044,
0.00862195,
0.0157992,
0.00719753,
-0.00228683,
0.0132468,
0.023707,
0.0130812,
0.0148757,
0.0394551,
0.0402208,
0.0289927,
0.0316694,
0.0291606,
0.0266492,
0.0288317,
0.0135402,
0.0149216,
0.0143661,
0.0149473,
0.0237834,
0.0365018,
0.0356205,
0.0313288,
0.0211926,
0.0270503,
0.0281793,
0.0321755,
0.0200944,
0.0103727,
0.0076915,
0.00799245,
0.0164411,
0.0168416,
-0.000852542,
-0.00526015,
-0.00836943,
-0.00145448,
-0.0149511,
-0.011489,
-0.0164861,
-0.026069,
-0.030214,
-0.0273113,
-0.0209289,
-0.0338909,
-0.0352941,
-0.0267613,
-0.0228603,
-0.0153405,
-0.0173112,
-0.0185778,
-0.0269076,
-0.0050789,
-0.00503611,
-0.0249962,
-0.0155986,
0.0111858,
0.00891713,
-0.0047606,
-0.00912825,
-0.010168,
-0.00981604,
-0.00288833,
-0.00216348,
0.00951782,
0.00772522,
-0.00494668,
-0.00195307,
0.00166108,
-8.72E-05,
-0.00169128,
0.00122214,
0.00509666,
-0.0101308,
0.0100784,
-0.00482943,
-0.0173081,
0.0063043,
0.001926,
0.00386549,
0.00645966,
0.00436859,
0.00228522,
0.0125079,
0.0110852,
-0.00295533,
-0.0135949,
-0.00805184,
0.0117287,
0.0133772,
0.0106446,
-0.0141139,
0.0049592,
0.0102465,
0.0116115,
-0.0255855,
0.017103,
0.00227541,
0.00630229,
-0.0120948,
-0.0229916,
-0.00277565,
-0.0092348,
-0.0169785,
-0.0109738,
-0.00936311,
-0.0137831,
-0.0169701,
-0.0270346,
-0.0274893,
-0.028548,
-0.00676441,
-0.0213849,
-0.038119,
-0.0445216,
-0.0412537,
-0.0516304,
-0.0549473,
-0.0615681,
-0.0601687,
-0.0661227,
-0.0719824,
-0.0728852,
-0.0770719,
-0.0699608,
-0.0704636,
-0.0882623,
-0.0977556,
-0.0749548,
-0.0758083,
-0.0479971,
-0.0675257,
-0.0721932,
-0.0436497,
-0.0273008,
-0.0374775,
-0.0299267,
-0.00521905,
0.0114786,
0.0270418,
0.0431675,
0.0617129,
0.0800021,
0.0948704,
0.137294,
0.166718,
0.194038,
0.218334,
0.238837,
0.253475,
0.264374,
0.268147,
0.285348,
0.263373,
0.210454,
0.20181,
0.192086,
0.185112,
0.230666,
0.273007,
0.245864,
0.186043,
0.139729,
0.087238,
0.0236054,
0.00244631,
-0.0376858,
-0.03881,
-0.0633439,
-0.0914953,
-0.15671,
-0.19954,
-0.228014,
-0.229763,
-0.207786,
-0.203909,
-0.230013,
-0.227412,
-0.217998,
-0.21346,
-0.219163,
-0.236741,
-0.223477,
-0.218202,
-0.19145,
-0.163102,
-0.160959,
-0.157309,
-0.11181,
-0.0736059,
-0.054452,
-0.047652,
-0.0353408,
-0.0240867,
-0.00184691,
0.0270771,
0.038964,
0.0384111,
0.0432833,
0.0384302,
0.0507732,
0.055931,
0.0520121,
0.049258,
0.0596856,
0.06278,
0.0444948,
0.0480657,
0.0387233,
0.0478809,
0.0561344,
0.0749841,
0.0579931,
0.0208625,
0.0299422,
0.0253544,
0.0132443,
0.00639007,
0.000738012,
0.00841587,
0.0269858,
0.0329717,
0.0126064,
0.00390716,
0.010422,
0.00673186,
-0.00151124,
0.0118971,
0.0115056,
-0.00075433,
-0.00741543,
0.00284089,
0.0214291,
0.00351519,
-0.0157918,
-0.0141663,
0.00838566,
0.00929804,
0.0225497,
0.026775,
-0.000523795,
-0.0229392,
-0.0113454,
0.00674418,
0.00527286,
-0.0084794,
-0.00134015,
-0.000660043,
0.00100319,
0.00785542,
0.0103473,
0.0207761,
0.00564234,
0.00216477,
-0.0106954,
-0.00963652,
-0.00517849,
0.00316287,
0.0129589,
-0.0113934,
-0.0153596,
-0.00331009,
0.00387838,
-0.00835964,
-0.000701121,
0.00290262,
0.0045545,
0.0188182,
-0.00366432,
-0.0161256,
-0.0164626,
0.000826472,
0.00094818,
0.0110891,
-0.00904605,
-0.0102622,
-0.00162188,
-0.00303012,
0.00137191,
0.00494909,
-0.00217025,
0.00800976,
0.00555087,
-0.0137547,
-0.0113924,
-0.00225063,
0.00120949,
-0.00926565,
-0.00568048,
-0.00211453,
0.010332,
0.00657531,
-0.00448503,
-0.0022978,
-0.00159021,
0.000225991,
-0.0136803,
-0.00188238,
0.0187885,
0.0127293,
-0.0276671,
-0.027476,
0.020422,
0.0132653,
-0.00460633,
-0.0246173,
-0.0119756,
-0.00794814,
0.00154329,
-0.0103652,
-0.0109852,
0.00421416,
0.00124895,
-0.0137315,
-0.00852342,
0.00327991,
-0.00712624,
-0.0104506,
0.00123731,
-0.00345609,
6.81E-05,
-0.0202305,
-0.0141841,
-0.0128617,
0.00445218,
0.00879257,
-0.00566429,
-0.00315243,
0.001766,
-0.00126354,
0.00345865,
0.0146405,
-0.00752475,
-0.0104407,
-0.00672693,
-0.0201693,
-0.00577708,
0.010075,
0.0186512,
0.0256185,
0.00120377,
-0.0068508,
-0.00630974,
0.000564598,
0.00503686,
-0.00114278,
-0.0118215,
0.0111954,
0.00738819,
0.00588924,
0.00395121,
0.00788907,
0.0073497,
0.00800088,
-0.000672242,
0.0130524,
0.00580917,
-0.0113937,
0.00417036,
0.0133432,
0.0247058,
0.0139884,
0.0119421,
0.0213225,
0.000382079,
0.00479378,
0.0204828,
0.0359636,
0.00220686,
-0.00423914,
0.00918578,
0.0186971,
0.0186351,
0.0253483,
0.0271891,
0.0191449,
0.00219059,
0.0138738,
0.0273349,
0.00454823,
0.00701145,
0.0321387,
0.0260445,
0.00879853,
0.0179472,
0.0261442,
0.0209309,
0.0283632,
0.0219029,
0.0233976,
0.0171507,
0.00656067,
0.0230216,
0.0251047,
0.0414522,
0.030958,
0.0337525,
0.0239405,
0.0230412,
0.0305648,
0.0196434,
0.0161639,
0.0206057,
0.0268132,
0.0237752,
0.00760043,
0.0114557,
0.0154282,
0.0243642,
0.00896426,
-0.00505012,
0.000598321,
0.0199126,
0.0130739,
-0.0200893,
-0.0145319,
0.0182469,
-0.0033232,
-0.00545835,
0.000342584,
0.0118051,
-0.0039306,
-0.0115946,
-0.00812045,
-0.00937523,
0.000654292,
-0.0181724,
-0.00242605,
-0.0118276,
-0.01596,
-0.00123566,
0.00288718,
-0.00731881,
-0.0371988,
-0.0163628,
0.00242955,
-0.0343905,
-0.0285974,
-0.012398,
-0.000844923,
-0.0177293,
-0.0052811,
-0.0148012,
-0.0257391,
0.00252263,
-0.0201545,
-0.00670808,
-0.0157197,
-0.025019,
-0.01551,
-0.0158354,
-0.0258325,
-0.0233298,
-0.0149607,
0.0133553,
-0.00958365,
-0.0208248,
-0.0176148,
-0.0072333,
-0.0239851,
-0.0390622,
0.00595795,
-0.00317166,
-0.017738,
0.00110065,
-0.0144582,
-0.0216889,
0.00773149,
-0.00387089,
-0.0077829,
0.00376626,
-0.00627871,
-0.0131553,
-0.024952,
0.00445477,
0.0129261,
-0.0087595,
-0.0164208,
0.00111067,
0.0014385,
0.005926,
-0.00808054,
-0.0184089,
-0.00709444,
-0.00925188,
-0.00934417,
-0.00138216,
-0.00300349,
0.00812538,
0.00546617,
-0.0025648,
-0.000430907,
-0.00690286,
-0.0193903,
0.00806687,
0.0091206,
-0.0136388,
0.00322595,
-0.000483835,
-0.0106882,
-0.0180002,
0.00946094,
-0.000640529,
0.00898297,
-0.0140997,
-0.00305334,
0.00603537,
0.00766488,
-0.0109486,
-0.0180865,
-0.0197362,
-0.00214183,
0.0204559,
0.0179573,
0.0165786,
0.0012697,
0.00164505,
-0.0198393,
0.000899971,
-0.00717927,
0.00479456,
0.00348496,
-0.00495878,
0.0131233,
-0.00651426,
-0.0154851,
-0.000843013,
0.00601771,
-0.011409,
-0.00781136,
-0.0147451,
-0.0116577,
0.00258427,
0.00484026,
-0.000843244,
-0.00799228,
-0.000423183,
-0.00710199,
-0.00941753,
0.00929944,
0.0176556,
-0.00231085,
0.017854,
-0.000334822,
-0.0209509,
-0.00661124,
0.0111287,
-0.000581223,
0.0072932,
0.0192171,
-0.000410956,
0.0149202,
-0.00696401,
0.00158026,
-0.0078332,
-0.0195072,
-0.00868219,
0.0215669,
0.0139533,
-0.00158532,
-0.0124265,
-0.00271144,
-0.000759916,
0.00103382,
-0.000404984,
-0.00167793,
0.00692472,
-0.00712411,
-0.000616306,
0.00735289,
0.0159748,
-0.001937,
-0.0216223,
-0.0160554,
0.00554046,
0.018892,
0.00538987,
-0.00664519,
-0.00280973,
-0.0112608,
0.00198623,
0.00861235,
0.00101248,
-9.89E-05,
0.0122374,
0.00371453,
0.00346161,
0.00727138,
-0.00314258,
-0.00512457,
0.0142713,
0.0077912,
0.00310695,
0.015106,
0.00640544,
0.00144029,
-0.00496897,
0.00934687,
0.00732827,
-0.0234867,
0.00331652,
-0.00401933,
-0.00859883,
0.0164402,
0.00895515,
-0.00273523,
-0.00617109,
0.0138586,
-0.0136889,
-0.0112987,
-0.00955657,
-0.0128319,
-0.00834046,
-0.0122647,
-0.00680349,
0.0146785,
0.0160944,
0.0134656,
0.00307074,
-0.00586537,
-0.00525065,
-0.00236658,
-0.00805485,
-0.00953043,
0.00744809,
0.0153707,
0.0155325,
0.00987582,
0.00390307,
0.00117462,
-0.00429707,
0.00140505,
0.0100276,
-0.00124732,
-0.0144574,
-0.00435819,
-0.0114071,
0.009221,
0.01011,
0.000968429,
0.014646,
0.0190998,
-0.0156096,
-0.0194125,
-0.00978772,
0.000478707,
0.0078249,
0.0041577,
-0.0124667,
-0.0121124,
0.00327675,
-0.00174166,
-0.000792069,
0.0185838,
0.0133376,
-0.0115166,
-0.00856609,
-0.0121208,
0.000310404,
-0.00137488,
-0.002615,
-0.00794379,
-0.00522689,
-0.00191093,
0.00248712,
-0.00384846,
-0.00878279,
-0.0163635,
-0.00248008,
-0.000793971,
-0.0224724,
-0.0139513,
-0.0092149,
-0.00130465,
-0.00931581,
-0.011401,
-0.0151649,
-0.0241662,
-0.00619948,
0.00523949,
-0.0222121,
-0.0212313,
-0.0126905,
-0.0111507,
-0.0138573,
0.00411501,
0.00781537,
0.00372078,
-0.0181982,
-0.00566748,
-0.0103063,
0.00964032,
0.00659862,
0.0210286,
0.0210532,
0.010559,
0.00832048,
0.00673406,
0.0100093,
0.0124841,
0.00525987,
0.00646278,
0.0083268,
0.0121482,
0.002555,
-0.0107413,
-0.00961407,
0.0116028,
-0.0124664,
-0.0195154,
-0.00824649,
0.00046819,
-0.0331769,
-0.0337662,
0.008253,
0.0161796,
0.0128366,
-0.00371211,
-0.00238985,
0.00305425,
0.00388781,
0.0127397,
0.0265414,
0.02588,
0.0334172,
0.00562711,
0.00740784,
0.0340712,
0.0273638,
0.0424724,
0.0298809,
0.0221189,
0.0243665,
0.00862831,
0.0164938,
0.0230408,
0.0182342,
0.0187395,
0.0137111,
0.0165763,
0.0224753,
0.0184563,
0.015841,
0.0142987,
0.00378868,
0.0158594,
0.0202408,
0.0141734,
-0.00672116,
-5.31E-05,
0.0121601,
0.00563523,
-0.00264485,
-0.00314121,
-0.00913233,
-0.00314929,
-0.00656133,
-0.0140359,
-0.00324803,
-0.00689375,
-0.00669289,
-0.0228797,
-0.016459,
-0.0227141,
-0.0162421,
-0.00125418,
-0.0106043,
0.000207351,
-0.0172074,
-0.0149492,
0.00681919,
-0.0140444,
-0.021386,
-0.00339193,
-0.00407834,
0.000668069,
-0.00533401,
-0.0198173,
-0.00151408,
-0.00867987,
-0.017362,
-0.00765332,
-0.00560544,
-0.00878835,
-0.00053122,
0.0122101,
-0.0108568,
-0.021181,
-0.0061375,
-0.00181126,
0.00539362,
0.00965366,
0.00433612,
0.00206555,
-0.00557118,
-0.00659712,
-0.0136332,
0.00406902,
0.0160873,
0.00235618,
-0.00233085,
8.49E-05,
-0.0133758,
-0.0145548,
0.0115975,
-0.00110667,
-0.0105931,
-0.00132765,
0.0281446,
0.0194019,
-0.0280435,
-0.0318249,
-0.0157343,
-0.00243174,
0.00192851,
0.00705054,
0.011148,
0.0140519,
0.00102822,
-0.0088362,
-0.00778323,
-0.00893126,
-0.00937868,
0.00105753,
-0.0182541,
-0.0179699,
-0.00700458,
0.00378465,
-0.00536027,
-0.000956574,
-0.0182981,
-0.0205036,
-0.0216671,
-0.0188901,
-0.035813,
-0.0522197,
-0.0514529,
-0.0399948,
-0.0519979,
-0.0505701,
-0.0462317,
-0.050309,
-0.0561623,
-0.0605462,
-0.0742901,
-0.0844309,
-0.0682911,
-0.0606371,
-0.0588488,
-0.0578735,
-0.0461811,
-0.045573,
-0.0519537,
-0.0620328,
-0.0314121,
-0.0160224,
-0.0499453,
-0.0258231,
0.00333307,
0.00538847,
0.0456285,
0.0796191,
0.0687502,
0.0525721,
0.0790463,
0.125088,
0.154014,
0.192409,
0.218141,
0.233991,
0.246132,
0.23629,
0.237806,
0.241287,
0.237496,
0.196143,
0.174642,
0.15272,
0.160745,
0.209173,
0.236275,
0.212842,
0.154001,
0.0991459,
0.0540048,
0.00326609,
-0.0347246,
-0.0610422,
-0.0698028,
-0.0772918,
-0.10756,
-0.166529,
-0.201374,
-0.208135,
-0.209063,
-0.204876,
-0.194344,
-0.191764,
-0.199122,
-0.191697,
-0.181329,
-0.198297,
-0.19843,
-0.199528,
-0.201255,
-0.163947,
-0.147614,
-0.155457,
-0.121411,
-0.0915499,
-0.0823276,
-0.0561444,
-0.0430409,
-0.0201375,
-0.0126159,
-0.00617106,
0.022079,
0.022355,
0.0479601,
0.0552612,
0.035577,
0.0352443,
0.0471937,
0.0489781,
0.0471136,
0.0528047,
0.0510357,
0.0641684,
0.0716762,
0.0713143,
0.0639086,
0.0564305,
0.0615112,
0.0396702,
0.0375159,
0.0406446,
0.0340029,
0.0308546,
0.0208349,
0.00150684,
-0.000924704,
0.00317133,
0.0163713,
0.0111513,
0.0148463,
0.0135256,
0.000702383,
0.00290303,
-0.00318844,
0.00296767,
-0.00517997,
0.016051,
-0.00131709,
-0.0142476,
0.000230318,
0.00456488,
0.00910596,
0.00462312,
-0.00209254,
0.000443751,
-0.013341,
0.0122178,
0.0162699,
0.000268908,
-0.00924806,
-0.000793471,
-0.00754378,
-0.00263736,
0.0100404,
0.00864157,
-0.00343678,
-0.00273086,
0.0110819,
0.0104898,
-0.00110974,
-0.00446035,
-0.00522696,
-0.012311,
-0.0124437,
-0.00530237,
0.00684652,
0.007172,
0.00376449,
0.00390535,
0.00500448,
-0.00507594,
-0.00238628,
-0.00812657,
-0.0111314,
-0.00379554,
-0.00343496,
-0.0236436,
-0.00292769,
0.00935524,
0.0112629,
0.00360424,
-0.00650065,
0.0074877,
0.00365592,
-0.0121704,
-0.0123188,
-0.00536647,
-0.00199398,
-0.00511441,
-0.00275271,
-0.00316225,
0.00708836,
0.00129742,
0.00260586,
-0.00193284,
-0.00536052,
-0.000719082,
0.00551788,
-0.00542214,
-0.00505819,
-0.00212957,
-0.00618476,
-0.0164153,
-0.00304586,
0.011429,
0.000145101,
-0.0022672,
-0.00211992,
-0.00378307,
0.00229048,
-0.00072988,
-0.0113883,
-0.0107514,
-0.00157064,
-0.0139462,
-0.006127,
0.00360051,
-0.00385932,
-0.00908714,
-0.00868437,
-0.00831463,
0.000761178,
-0.00734871,
0.00279652,
-0.00456613,
-0.00629447,
-0.00772775,
0.00116845,
0.00405087,
-0.00166835,
-0.00433614,
-0.00184713,
0.00547676,
-0.00922588,
-0.0150441,
-0.00242794,
0.000305084,
0.00626539,
-0.00590566,
0.000367549,
0.0140836,
0.00708765,
-0.00281623,
-0.0123882,
-0.00285273,
-0.00155508,
0.00396928,
-0.00310574,
-0.0122573,
0.00322031,
0.00999503,
0.00871863,
0.0123418,
0.0103505,
-0.00210551,
-0.00349841,
-0.00531318,
0.00378286,
0.0140848,
0.0129749,
0.0177733,
0.0218497,
0.0176027,
0.0208957,
0.0145793,
0.00351247,
0.00873671,
0.0134258,
0.0143468,
0.0121506,
0.0150936,
0.0184859,
0.00938441,
0.0196717,
0.0250764,
0.0225262,
0.0100815,
0.0107239,
0.0165258,
0.00548062,
0.0135157,
0.0161968,
0.0322974,
0.0147271,
0.00588598,
0.0159704,
0.018118,
0.0196122,
0.0185119,
0.0221002,
0.0200207,
0.0253821,
0.0197365,
0.0199143,
0.00681992,
0.00440385,
0.0238319,
0.0210867,
0.0104084,
0.020763,
0.0248007,
0.0142667,
0.0129478,
0.0143687,
0.0305022,
0.0136063,
0.0164334,
0.0224733,
0.0174811,
0.0224897,
0.0198549,
0.0123223,
0.0136413,
0.0163614,
0.0185338,
0.00866175,
0.00389117,
0.0194259,
0.0251577,
0.0167086,
0.00782511,
-0.00619495,
-0.00982549,
0.00113151,
-0.00440431,
-0.00540505,
0.000223399,
-0.00306392,
-0.00346313,
0.000796531,
-0.00858053,
-0.0144496,
-0.00387304,
-0.0139176,
-0.0167571,
-0.0188719,
-0.0139581,
-0.0156156,
-0.0175395,
-0.0173079,
-0.0147641,
-0.0170332,
-0.0139241,
-0.0117514,
-0.0199041,
-0.0188035,
-0.0129826,
-0.0250984,
-0.0300685,
-0.0220673,
-0.00837704,
-0.0131091,
-0.0170049,
-0.0207104,
-0.0201779,
-0.0252767,
-0.0227344,
-0.00413321,
-0.0110597,
-0.0126016,
-0.0121539,
-0.00291631,
-0.00673195,
-0.0104891,
-0.00609273,
-0.0160331,
-0.0103684,
-0.0133692,
-0.00755449,
0.00303348,
-0.00522862,
-0.00919625,
-0.00514422,
0.00239933,
-0.00080344,
-0.0134552,
-0.0174285,
-0.00721895,
-0.00175776,
0.0112562,
0.00237252,
-0.0102821,
-0.00922824,
-0.0145307,
-0.0082249,
-0.00438799,
0.000380002,
-0.00961655,
-0.00120159,
-0.00156061,
-0.0126341,
-0.000275322,
0.00104794,
-0.00202822,
-0.000440347,
-0.00486792,
0.000387299,
-0.00376932,
-2.14E-05,
-0.00163793,
-0.00408701,
0.00137069,
-0.00630171,
-0.0044479,
0.00272511,
0.0077737,
1.77E-05,
0.00146581,
0.00321793,
-0.0117175,
-0.00870936,
0.00366583,
0.00161969,
-0.00885995,
-0.011752,
-0.0107782,
0.00425684,
0.0058428,
-0.00165064,
0.00427085,
0.00435028,
-0.00934143,
-0.00896955,
-0.0133055,
-0.00551872,
0.000150568,
0.00499756,
-0.00667438,
-0.000719181,
0.00295902,
0.00953923,
0.00542851,
-0.00807803,
0.000899978,
-0.00955025,
-0.00479738,
0.00706753,
0.010833,
0.00666107,
-0.00706641,
-0.0104446,
0.00332324,
0.00106266,
-0.00152915,
0.00137356,
0.00378318,
-0.000126076,
-0.00485209,
-0.00375991,
0.000561294,
-0.000626988,
-0.000527832,
-0.00253934,
-0.00552837,
-0.00722892,
0.000612703,
-0.0012603,
0.00349729,
0.00808951,
-0.00398911,
-0.0184969,
-0.00970231,
-9.83E-05,
-0.0002025,
-0.00321707,
0.00607088,
0.00969967,
0.0130107,
0.00289717,
-0.00235352,
0.00114353,
-0.00166066,
-0.0057486,
0.010889,
0.00714873,
0.00131768,
0.0056952,
0.00571729,
0.000736947,
0.000464043,
0.006517,
0.00675886,
-0.00916728,
0.00566834,
0.00417397,
-0.00475006,
0.00317014,
0.00366031,
-0.00797275,
-0.00373318,
0.00165254,
-0.0033055,
0.00323914,
0.012224,
-0.00159617,
-0.00617966,
0.00510829,
0.00572797,
-0.000113186,
-0.0015728,
5.45E-05,
-0.000571643,
0.00561114,
0.00322927,
-0.0020533,
-0.00198338,
0.00489548,
0.00935915,
0.00250712,
3.66E-05,
-0.000641673,
0.00937273,
0.00224549,
-0.00826817,
-0.00307278,
0.00310529,
0.0013654,
-0.00489425,
0.00617277,
0.00980674,
-0.000303872,
0.00189481,
-0.0038259,
-0.00257827,
0.000782486,
-5.53E-05,
-0.000237319,
0.00185418,
0.00557132,
0.00104199,
-0.000730254,
0.00235758,
0.00108055,
-0.00213483,
0.00403842,
0.00438756,
0.00133897,
0.00185013,
0.00025597,
-0.00813763,
-0.000837892,
0.00257294,
0.0069485,
0.00710916,
-0.000506402,
-0.00246765,
0.00170986,
-0.0145145,
-0.0103612,
-0.00492658,
-0.00419904,
-0.00688453,
-0.000846524,
0.00323404,
0.00179669,
-0.00386407,
-0.00177309,
0.000463853,
-0.0068627,
-0.00983539,
-0.00181898,
-0.00093775,
-0.00557305,
-0.0035875,
0.000811751,
0.00438844,
-0.000948588,
-0.0064606,
0.00354957,
0.000276479,
-0.0018777,
-0.00841574,
0.00428824,
0.00839884,
0.000516319,
-0.00123637,
0.00410982,
-0.000277317,
-0.00420509,
0.00947751,
0.00824041,
-0.00646295,
-0.00356492,
-0.000869654,
-0.00598626,
0.000501295,
-0.00358039,
-0.00706821,
-0.00753753,
-0.0083892,
-0.00962539,
-0.0112479,
-0.0129344,
-0.0125821,
-0.0116479,
-0.0157954,
-0.0198457,
-0.0197518,
-0.0189102,
-0.0210409,
-0.0185351,
-0.00928581,
-0.00575012,
-0.0116461,
-0.0138614,
-0.0217776,
-0.0078794,
0.0029164,
-0.000227904,
0.0118211,
0.00718785,
0.00238287,
-0.00129538,
0.00586624,
0.0143231,
0.0250488,
0.0288216,
0.0245106,
0.0187522,
0.00944374,
0.00645759,
0.0088233,
0.0150848,
0.00760307,
-0.000999098,
-0.00570491,
-0.0176801,
-0.00828075,
-0.00307473,
-0.00901942,
-0.0157563,
-0.0156773,
-0.0155767,
-0.0178786,
-0.0272722,
-0.0149478,
-0.00064349,
-0.00377284,
-0.00118853,
0.0022612,
0.0135419,
0.00595936,
0.00347163,
0.0136923,
0.023683,
0.0260076,
0.0289267,
0.0296968,
0.0268686,
0.0317765,
0.0277585,
0.0238825,
0.0240372,
0.0246663,
0.0223749,
0.021211,
0.0168068,
0.0159596,
0.0180217,
0.0212116,
0.0201868,
0.019637,
0.0161596,
0.0141188,
0.0133468,
0.0201481,
0.0235108,
0.0266632,
0.0266834,
0.0221055,
0.0150231,
0.00769146,
0.00527819,
0.00696312,
0.00771844,
0.000412512,
0.00412972,
0.00154349,
-0.00314951,
-0.000735688,
-0.00627508,
-0.0124951,
-0.0177866,
-0.0203779,
-0.0288536,
-0.0220213,
-0.0144517,
-0.0310715,
-0.0333705,
-0.0208668,
-0.00909866,
-0.00535026,
-0.0128593,
-0.0165761,
-0.0129403,
-0.0144113,
-0.0145143,
-0.0215002,
-0.0164324,
-0.00885553,
-0.00523898,
-0.00460793,
-0.00372179,
-0.00257636,
-0.000681921,
0.00131842,
-0.000455047,
-0.00162902,
-0.00139057,
0.00592779,
0.00738317,
0.00848067,
0.00210254,
-0.000906496,
-0.00151543,
-0.00425379,
0.0033404,
-9.31E-05,
-0.00937506,
-0.00476232,
-0.00308477,
0.0139439,
-0.00481418,
-0.00806038,
-0.00372514,
-0.00637398,
-0.0051658,
-0.000102149,
-0.00801482,
-0.0101339,
-0.00969842,
-0.00331256,
-4.18E-05,
-0.00555354,
-0.00447828,
-0.00863397,
-0.00944898,
-0.00353082,
-0.000595791,
-0.00226961,
-0.00144025,
-0.00313359,
-0.00590339,
-0.00555333,
0.00615764,
-0.00298713,
-0.0134206,
-0.0169042,
-0.0153956,
-0.00988181,
-0.00199755,
-0.00519124,
-0.0102555,
-0.0163977,
-0.0187789,
-0.0225925,
-0.0346493,
-0.0437951,
-0.0519822,
-0.056629,
-0.0603298,
-0.0624389,
-0.0561579,
-0.0657548,
-0.0706674,
-0.0773538,
-0.0880599,
-0.0899762,
-0.0761139,
-0.0763752,
-0.0664448,
-0.0593841,
-0.0740753,
-0.0609425,
-0.0487297,
-0.0496701,
-0.0378025,
-0.0167769,
-0.00464342,
0.00288111,
0.0212467,
0.0471309,
0.0694425,
0.0934325,
0.109622,
0.123416,
0.151542,
0.198746,
0.228177,
0.251847,
0.266711,
0.274081,
0.27073,
0.268469,
0.242365,
0.19935,
0.169168,
0.179605,
0.203257,
0.250738,
0.268083,
0.226241,
0.170107,
0.102656,
0.0509719,
0.0155918,
-0.0247956,
-0.0468394,
-0.0461226,
-0.0546388,
-0.107777,
-0.16357,
-0.208042,
-0.228666,
-0.234595,
-0.213288,
-0.204788,
-0.215633,
-0.219983,
-0.220793,
-0.22457,
-0.23004,
-0.231387,
-0.225376,
-0.219117,
-0.197378,
-0.180522,
-0.157669,
-0.136704,
-0.113207,
-0.0960217,
-0.0776422,
-0.0550903,
-0.0240903,
0.00458546,
0.013207,
0.0232065,
0.0500276,
0.0532821,
0.0553681,
0.0511703,
0.050458,
0.0523156,
0.0546905,
0.0590856,
0.0752521,
0.0737741,
0.0750733,
0.0748071,
0.070408,
0.0662624,
0.0508933,
0.045994,
0.0342538,
0.0328275,
0.0247214,
0.0225533,
0.019843,
0.0143159,
0.0124343,
0.0120825,
0.0122764,
0.00733858,
0.00372798,
0.00499064,
0.00496305,
0.0024986,
0.00680807,
0.00849266,
0.00689293,
0.00863237,
0.00285797,
0.000240499,
-0.00262736,
0.000395657,
0.00460923,
0.00142994,
0.00315078,
0.00814828,
0.00800285,
0.00416693,
0.00618478,
0.00822755,
0.00220121,
-0.00607084,
0.000401166,
-0.00249683,
-0.0100735,
0.00064917,
0.00782313,
0.00335579,
0.00310504,
-0.00166888,
0.000522689,
0.00110188,
0.000391356,
0.000493883,
-0.00409362,
-0.00188239,
0.00275732,
0.0022187,
0.00119383,
0.0061549,
-5.26E-05,
-0.00140874,
-0.00115079,
-8.87E-05,
0.00193851,
-0.00202841,
-0.00713537,
-0.0128976,
-0.000867467,
0.00112014,
0.00180327,
-0.000436932,
-0.00123169,
-0.00300896,
-0.00156177,
-0.000127162,
0.00275079,
-0.00182891,
-0.00431895,
-0.00374888,
-0.00513584,
-0.00297824,
0.000296001,
0.000802487,
0.000644412,
0.00257226,
0.00399621,
6.08E-05,
-0.000657687,
-0.00382394,
-0.00604023,
-0.00487988,
-0.00293282,
-0.00505463,
-0.00784771,
-0.00629621,
-0.00477029,
-0.0039181,
0.0082347,
0.00385296,
-0.000234217,
-0.000953054,
-0.0120598,
-0.0181819,
-0.00702142,
-0.00430991,
0.000470394,
0.00116906,
-0.000111165,
-0.000458356,
-0.000682593,
-0.00207939,
-0.00545872,
-0.00321546,
-0.00473626,
-0.00209212,
-0.00305117,
-0.00826096,
-0.00898293,
-0.00683521,
-0.00845239,
-0.00816994,
-0.00857628,
-0.00125529,
-0.00821407,
-0.0103553,
-0.00800078,
0.000955685,
-0.00193163,
-0.0113195,
-0.0106984,
-0.00993609,
-0.0164729,
-0.00732534,
-0.00158458,
0.00382865,
0.00875731,
0.0056005,
-0.00272375,
0.00579831,
0.00819259,
0.00381724,
0.00222553,
0.0029375,
0.00450221,
0.00805791,
0.0111826,
0.0104833,
0.0126001,
0.0149489,
0.00992889,
0.00725451,
0.0114617,
0.00815228,
0.00639311,
0.0118524,
0.0141772,
0.0127242,
0.0120283,
0.00545832,
0.0135697,
0.0208305,
0.0185052,
0.0140411,
0.0210345,
0.0186128,
0.0126047,
0.00333639,
0.0105537,
0.0217985,
0.021538,
0.0227209,
0.0193623,
0.0172902,
0.0145652,
0.0124843,
0.0104026,
0.0183554,
0.0217807,
0.0187386,
0.0208824,
0.0180191,
0.017756,
0.0158873,
0.0141941,
0.0121921,
0.020077,
0.024094,
0.0226248,
0.0242458,
0.0250726,
0.0218672,
0.0283833,
0.0269796,
0.0257446,
0.0228949,
0.0202069,
0.0168668,
0.0199903,
0.0237458,
0.0255381,
0.0274643,
0.0215875,
0.013726,
0.0111538,
0.0166134,
0.00533631,
-0.000678278,
0.0040622,
0.0137222,
0.01308,
0.00714209,
-0.00135049,
-0.00269828,
0.00114672,
-0.00309528,
-0.00653355,
-0.00982499,
-0.00990418,
-0.00629463,
-0.00822914,
-0.0145832,
-0.0138749,
-0.0133938,
-0.0162218,
-0.0131411,
-0.0132201,
-0.0145223,
-0.0138163,
-0.0120777,
-0.0151362,
-0.0131241,
-0.0118703,
-0.0139669,
-0.0111629,
-0.0131699,
-0.0198277,
-0.0194858,
-0.0148962,
-0.013018,
-0.0127187,
-0.0138363,
-0.0134578,
-0.0146573,
-0.0164631,
-0.011592,
-0.0102382,
-0.0107819,
-0.0133836,
-0.0118924,
-0.0147215,
-0.0145869,
-0.0171506,
-0.0164231,
-0.0125641,
-0.00977886,
-0.00887432,
-0.0088772,
-0.0071959,
-0.0051226,
-0.00653867,
-0.0114416,
-0.0122229,
-0.00871819,
-0.00707425,
-0.00680292,
-0.00660691,
-0.00826361,
-0.0101521,
-0.0100039,
-0.00862573,
-0.00552925,
-0.00718492,
-0.00614608,
-0.00499939,
-0.0076262,
-0.00399077,
-0.00671326,
-0.00753821,
-0.00338873,
-0.00219229,
-0.0024905,
0.00300066,
0.000689417,
-0.00375875,
0.00179458,
-0.00255405,
-0.000135338,
-0.000172454,
-0.00315003,
-0.00227062,
0.003761,
-0.000751898,
-0.0025391,
-0.00435135,
-0.00813031,
-0.000767793,
0.00446656,
0.000776159,
-0.00293835,
-0.00748595,
-0.00655518,
-0.00483881,
-0.00702952,
-0.0102141,
-0.00646261,
-0.00499869,
-0.00387987,
-0.00181088,
-0.000571096,
-0.000645213,
0.00185148,
-0.000524137,
-0.00178349,
-0.000145469,
-0.00370037,
-0.00338482,
-0.0030816,
-0.00117136,
-0.000404111,
-0.00126432,
-0.000352647,
0.00249367,
0.00549539,
0.00185658,
-7.05E-06,
-0.00268407,
0.000460951,
0.00311724,
0.00269595,
0.00518496,
-0.0018762,
-0.0023047,
0.000986624,
-0.00300648,
-0.00117611,
-0.00274654,
-0.00108305,
-0.00120248,
0.00239701,
-0.000318102,
0.00165613,
0.00136087,
-0.00524984,
-0.0016699,
-0.000845684,
0.00110645,
-0.00018299,
-0.00455227,
-0.000835379,
0.00222903,
0.00108085,
0.00170782,
0.00184458,
-0.00579078,
-0.00291144,
-0.000521178,
0.00251333,
-0.00303144,
-0.00598874,
-0.0092707,
-0.00672704,
0.00601245,
0.00386556,
0.00706167,
0.00702503,
-0.000288936,
-0.00387485,
-0.00373153,
-0.00179974,
0.000303478,
0.00306478,
0.0037343,
0.00263686,
0.00543754,
0.00307514,
0.00121465,
0.00196084,
0.00159262,
-5.10E-05,
0.000591075,
0.00513772,
0.00501276,
0.0024823,
0.00563811,
0.00396177,
0.00360293,
0.00456169,
0.00392517,
0.000398667,
0.00207331,
0.00118109,
0.0012818,
0.00480232,
0.00267974,
0.00413752,
0.00270181,
0.00144649,
0.00376903,
0.00675558,
0.00263746,
0.000475943,
0.00140277,
-0.00121804,
-0.000590824,
-0.000276845,
0.00360669,
0.00636577,
0.0020118,
-0.00492504,
-0.00149951,
-0.004057,
-0.00369785,
-0.00236475,
-0.000543912,
-0.00195801,
0.00277832,
0.000556506,
-0.000532607,
-0.000165847,
-0.00125655,
-0.000892232,
-0.000367918,
-0.00130225,
0.00245383,
0.001514,
-0.000885572,
-5.23E-05,
0.00158616,
-0.000178185,
-0.000814534,
-0.00161789,
-0.0011322,
0.00226041,
0.00241014,
0.00400958,
9.98E-05,
-0.00284634,
-0.00143085,
-0.000185087,
-0.00105114,
-0.00354363,
-0.00264594,
-0.00127089,
-0.00443496,
-0.00404653,
-0.00204717,
-0.00264391,
-0.00211416,
-0.00272282,
-0.00624923,
-0.00605762,
-0.00166158,
0.0027324,
0.00291785,
0.00294155,
-0.000270118,
0.00040433,
0.00124395,
-0.000177624,
-0.00175568,
-9.10E-05,
0.00255175,
0.00196558,
0.00349137,
0.00599668,
0.00592154,
0.00456058,
0.00239913,
0.00315888,
0.00538287,
0.00259732,
0.00159807,
0.00286958,
0.00301226,
0.00218661,
0.00152393,
5.17E-05,
0.000357455,
-0.000797074,
-0.00179542,
-0.00150662,
-0.00381638,
-0.00209164,
-0.00329279,
-0.0017577,
-0.00250478,
-0.00472662,
-0.00713029,
-0.00615722,
-0.00892939,
-0.00946075,
-0.00710549,
-0.00154144,
0.000756855,
0.00334813,
-0.00169863,
-0.00807364,
-0.0065543,
-0.00588085,
-0.00136192,
-0.000281413,
-0.00183194,
-0.00132232,
-0.00182912,
0.000529625,
8.80E-05,
-0.00428855,
-0.00726177,
-0.00333134,
-0.00366505,
-0.00664626,
-0.00224314,
-0.00777241,
-0.00769965,
-0.00671854,
-0.010817,
-0.0122273,
-0.0133765,
-0.0168529,
-0.0121363,
-0.00942022,
-0.00724586,
-0.0119218,
-0.0145443,
-0.0160809,
-0.0149092,
-0.0160418,
-0.0172082,
-0.0135491,
-0.00716314,
-0.00710761,
5.42E-05,
-0.00137005,
-4.75E-05,
0.00467375,
0.00648683,
0.0104124,
0.0127321,
0.0200841,
0.0264836,
0.0249744,
0.0236497,
0.0189508,
0.0113642,
0.00995296,
0.016012,
0.0144915,
0.0086279,
0.00262865,
0.000539227,
-0.00136247,
-0.00129625,
-0.00961868,
-0.0119265,
-0.015177,
-0.0187213,
-0.0267649,
-0.025064,
-0.0160428,
-0.0105396,
-0.00628426,
-0.00197679,
0.00287411,
0.00989309,
0.014394,
0.012824,
0.00988352,
0.010597,
0.0114121,
0.0133077,
0.0268102,
0.0347734,
0.0253911,
0.0240768,
0.0275999,
0.0299784,
0.0300838,
0.0225797,
0.0226806,
0.0273136,
0.0241804,
0.0226667,
0.0260076,
0.022549,
0.0241006,
0.0246699,
0.0184256,
0.0176595,
0.0183184,
0.021041,
0.0227432,
0.0217968,
0.0264444,
0.0272888,
0.0165509,
0.00425243,
-0.00913309,
-0.0145552,
-0.00943633,
-0.00236499,
0.000174497,
0.000436845,
-0.00611949,
-0.0172387,
-0.0206312,
-0.0216456,
-0.0272483,
-0.0275746,
-0.0284565,
-0.0268245,
-0.0187992,
-0.0139319,
-0.00817969,
-0.00688487,
-0.0132852,
-0.0120076,
-0.0147036,
-0.00907343,
-0.0085476,
-0.00907865,
-0.00289673,
-0.00472561,
-0.00695664,
-0.00554115,
-0.00597811,
-0.00567502,
-0.00236301,
0.000724712,
-0.0061182,
-0.00557305,
-0.00491894,
-0.0018873,
-0.00472848,
-0.00308286,
-2.26E-05,
-0.00169493,
-0.0119814,
-0.00951894,
3.03E-05,
0.00113257,
0.00123328,
-0.00160822,
-0.0020506,
-0.00397682,
-0.00317871,
-0.00418695,
-0.00975236,
-0.00320674,
0.00282715,
0.000742875,
0.00688409,
0.00539047,
-0.0058434,
-0.0117698,
-0.00915483,
-0.00884424,
-0.00275061,
0.00426657,
0.00184489,
-0.00581446,
-0.000755962,
0.00147676,
-0.00155299,
-0.00791364,
-0.008878,
-0.00542962,
-0.00664451,
-0.00752086,
-0.00548528,
-0.011397,
-0.011033,
-0.00959023,
-0.0101624,
-0.0158437,
-0.015164,
-0.019147,
-0.0187497,
-0.0199779,
-0.0259238,
-0.0476075,
-0.0636817,
-0.0599176,
-0.0539631,
-0.0597413,
-0.0688395,
-0.0828741,
-0.0796686,
-0.0695689,
-0.0867044,
-0.101601,
-0.100961,
-0.0871791,
-0.0791497,
-0.0782838,
-0.0654349,
-0.0729111,
-0.0700648,
-0.0524589,
-0.0460753,
-0.0357874,
-0.0304158,
-0.0200064,
0.00669131,
0.0246795,
0.0445624,
0.0610836,
0.0877567,
0.11576,
0.135942,
0.169249,
0.220272,
0.249902,
0.258995,
0.273477,
0.289329,
0.299604,
0.299613,
0.275751,
0.23091,
0.196288,
0.19854,
0.230973,
0.279276,
0.305662,
0.26198,
0.199105,
0.141204,
0.0791016,
0.0288609,
0.00152516,
-0.0224502,
-0.0422205,
-0.0561313,
-0.108485,
-0.163638,
-0.205684,
-0.248812,
-0.26545,
-0.244525,
-0.233536,
-0.245986,
-0.241158,
-0.237712,
-0.240704,
-0.255986,
-0.260593,
-0.243526,
-0.24248,
-0.232518,
-0.211019,
-0.184582,
-0.153808,
-0.123819,
-0.0987649,
-0.0667647,
-0.0550973,
-0.0382825,
-0.000385593,
0.0321304,
0.043645,
0.0505787,
0.0539765,
0.0574702,
0.0611282,
0.071488,
0.0619081,
0.0581745,
0.0630884,
0.0673087,
0.0721696,
0.0772198,
0.075853,
0.0750513,
0.0557377,
0.0462455,
0.0381692,
0.0211568,
0.0222351,
0.0358999,
0.0268683,
0.0245853,
0.0224066,
0.0140097,
0.0150794,
0.0121705,
0.0112562,
0.0116745,
0.00823234,
0.00382778,
0.000712006,
0.00243126,
0.0109141,
0.0106124,
0.00248534,
0.00723557,
0.00721374,
0.00111582,
-0.00443183,
-0.00247839,
-0.00112216,
0.00416176,
0.00106899,
-0.00134311,
0.00258505,
0.00135986,
0.00161279,
-0.00361778,
0.00379005,
0.0027963,
-0.000451835,
0.00682794,
0.00375804,
0.00247376,
0.00863738,
0.00930118,
0.00608194,
-0.00781847,
-0.00780371,
-0.00180455,
0.00516114,
0.000307906,
-0.00277182,
-0.00326986,
-0.00167255,
-0.00655747,
-0.00983391,
-0.00535298,
-0.011887,
-0.0037058,
0.00414054,
0.000971366,
-0.00932947,
-0.00685712,
-0.00148286,
0.00210056,
0.00356977,
-0.00112062,
-0.0017752,
-0.000659279,
0.00222737,
0.0055903,
-0.00141281,
0.00177005,
0.00381086,
-0.00402932,
-0.0044354,
0.00453397,
0.00200239,
0.00431348,
-0.00115631,
0.00792395,
0.00339499,
-0.00908074,
-0.00280341,
-0.00156332,
-0.00180212,
-0.00643459,
-0.00688586,
-0.00218695,
0.00312899,
-0.0027534,
-0.00316785,
-0.00669309,
-0.00556319,
-0.00609111,
-0.00860205,
-0.00549158,
-0.00954528,
-0.0104073,
-0.00840233,
-0.0103277,
-0.00954914,
-0.00347771,
-0.00716349,
-0.00636563,
-0.00917525,
-0.00652957,
-0.00214999,
-0.00412703,
0.000162836,
0.0013348,
-0.0036845,
-0.0129516,
-0.00801665,
-0.00150028,
-0.00699406,
-0.00442936,
-0.00060072,
0.00271405,
-0.00079388,
-0.00545805,
-0.00269901,
-0.00740213,
-0.00354374,
-0.00698001,
-0.00848385,
0.00376116,
0.00645501,
0.00251375,
0.00245936,
0.000307492,
0.00075446,
0.00218535,
-0.00559156,
0.000244794,
0.00658986,
0.00276652,
0.00220993,
0.00281984,
0.00799814,
0.00658229,
0.0150822,
0.0087418,
-0.00580042,
0.00754651,
0.0141551,
0.00771767,
0.0147773,
0.00297219,
-0.00164004,
-0.00374885,
0.00603527,
0.0155788,
0.00740793,
0.00693307,
0.0149669,
0.0200232,
0.0204873,
0.0132881,
0.0175247,
0.0165326,
-0.000203382,
-0.00209434,
0.0113489,
0.0150467,
0.0133721,
0.0137728,
0.0206218,
0.0196818,
0.0185623,
0.0237401,
0.0185503,
0.0102787,
0.0130077,
0.0184873,
0.0124799,
0.0231465,
0.0234649,
0.0148943,
0.0152382,
0.0165694,
0.0298943,
0.0309407,
0.0142079,
0.0172412,
0.0233731,
0.0285586,
0.0237354,
0.0257334,
0.0253276,
0.0220314,
0.0255528,
0.0151758,
0.0180848,
0.0240814,
0.0310582,
0.0208864,
0.0184827,
0.0248127,
0.0219078,
0.0159113,
0.021057,
0.0161383,
0.00745887,
0.0111931,
0.01471,
0.0141167,
0.0166861,
0.0188485,
0.00441128,
-0.000419626,
0.00369823,
0.00769215,
0.00507863,
0.00523317,
-0.000593359,
-0.00852746,
-0.0134009,
-0.0095599,
-0.00575289,
-0.0053879,
-0.00378123,
-0.0103278,
-0.0172685,
-0.0184622,
-0.0142401,
-0.0133482,
-0.0112621,
-0.0215816,
-0.0158309,
-0.0168328,
-0.0205463,
-0.0103074,
-0.0239872,
-0.0199994,
-0.0180894,
-0.0268361,
-0.0213198,
-0.0110893,
-0.0165357,
-0.0145179,
-0.018791,
-0.0109063,
-0.0130332,
-0.0198302,
-0.0306486,
-0.0165195,
-0.013043,
-0.00516688,
-0.00745316,
-0.0166627,
-0.00787147,
-0.0110146,
-0.0147611,
-0.0124731,
-0.0200065,
-0.0245738,
-0.0116072,
0.00271374,
-0.00232147,
-0.0136015,
-0.013484,
-0.00261297,
-0.0148069,
-0.0162408,
0.00862396,
-0.00752949,
-0.0171209,
-0.0110849,
-0.00770503,
-0.00406539,
-0.00210508,
-0.000688546,
-0.00677165,
-0.00562553,
-0.00129333,
-0.00720427,
-0.0121899,
-0.00459653,
0.00133732,
0.00059705,
0.00483617,
0.00208136,
-0.00491454,
-0.0148552,
-0.00168488,
-0.00456417,
-0.00196865,
0.00108643,
-0.000737922,
-0.00388029,
-0.00785403,
-0.00311023,
-0.00566873,
-0.00306782,
0.00614987,
0.00806815,
0.00382068,
-0.00254602,
-0.00747095,
-0.00674581,
0.00108658,
0.00146253,
0.0031214,
-0.00445487,
-0.0122033,
0.00512174,
-0.00636753,
-0.00297721,
-0.000727636,
-0.00819511,
0.0011605,
0.00759674,
0.00642105,
0.00750526,
0.00486209,
-0.00636297,
-0.00723592,
-0.00390602,
-0.00236071,
0.00354952,
0.00557154,
-0.00212044,
0.000378245,
-0.00311519,
-0.0103353,
0.00962669,
0.00450048,
0.00503297,
0.00475086,
-0.015118,
-0.0120134,
0.00759133,
0.00291564,
0.00325,
0.00406309,
-0.0035457,
-0.0105141,
-0.00195413,
0.00320058,
0.00349364,
-0.00495861,
-0.0105044,
0.00109738,
0.00120373,
0.00114301,
-0.00329176,
-0.0116145,
-0.000683213,
0.00441959,
0.000296352,
0.00491073,
0.00515561,
-0.00657392,
-0.00228085,
-8.88E-05,
0.000326811,
0.00900032,
0.0150903,
-0.00939842,
-0.013813,
-0.00915672,
0.00489487,
0.0170147,
0.0111826,
0.00228745,
-0.00125526,
-0.00591807,
-0.00037265,
-0.00290514,
0.00347654,
0.0137559,
0.00543895,
-0.00561526,
0.00114512,
-0.00227624,
0.00677608,
0.000143777,
-0.000165181,
0.00681961,
0.00119284,
-0.000377977,
2.76E-06,
-0.000254852,
0.00370333,
0.0157605,
0.00905282,
0.00348441,
-0.00353441,
-0.0137842,
0.00315836,
0.00181953,
-0.00534007,
-0.0167022,
-0.00912534,
-0.0036469,
-0.000590148,
0.00231094,
0.00732246,
-0.00351776,
-0.000432876,
0.0115612,
-0.000871193,
-0.00228914,
-0.00143058,
0.00364713,
-0.00712193,
0.00235026,
0.0105412,
0.00191582,
-0.00297353,
0.00736297,
0.0190082,
0.0144846,
0.00576722,
-0.00455526,
0.00859981,
-0.00218361,
-0.00114253,
0.0104275,
-0.00194363,
-0.0071862,
-0.00740504,
0.00872666,
0.00560585,
-0.0046315,
0.000183902,
-0.0045466,
-0.00377397,
-0.0114161,
-0.00967263,
0.000646698,
0.0122593,
-0.00250764,
-0.00141737,
-0.000814515,
-0.0165581,
-0.0132079,
0.0013068,
0.0261771,
0.00751484,
-0.0135755,
-0.0032719,
-8.88E-05,
-0.00176033,
0.00158507,
0.00525455,
0.00439334,
-0.0042352,
-0.0029921,
0.0107115,
0.0130867,
0.0110914,
0.00601959,
-0.00407152,
-0.00429472,
-0.000800442,
-0.00847785,
-0.0111454,
-0.000551021,
0.0108433,
0.00361726,
-0.00200204,
-0.00488289,
0.000152136,
-0.00583168,
0.00305713,
-0.0136389,
-0.0183764,
-0.0108322,
0.00332962,
-0.00113609,
0.00554701,
0.00428367,
-0.00994225,
-0.00735389,
-0.00688414,
-0.00383901,
0.00275364,
-0.00798058,
-0.00238024,
0.00855192,
0.00960573,
-0.00520482,
-0.00820568,
-0.00619198,
0.00180881,
0.00382301,
0.00308855,
0.00462337,
0.00147006,
-0.00701772,
-0.000448975,
0.00030119,
0.00704649,
0.0134758,
0.0102029,
0.0181032,
0.000764776,
0.00576386,
-0.00816671,
-0.0165926,
-0.0187065,
0.00943983,
0.0170305,
0.00859399,
0.00872525,
0.0153175,
-0.0101471,
-0.0126509,
-0.00368698,
0.000396682,
-0.010275,
-0.0112696,
-1.55E-06,
-0.00171933,
-0.0104387,
0.00377498,
-0.00649658,
-0.0103473,
-0.00923626,
-0.0204813,
-0.0139845,
0.00345567,
-0.00441133,
-0.00861934,
-0.0151564,
-0.00751634,
-0.0102964,
-0.0184791,
-0.00698007,
0.000413738,
-0.00066495,
-0.0357824,
-0.0345411,
-0.00114554,
-0.000484995,
-0.00310344,
-0.000582155,
0.00562623,
-0.0106904,
-0.0161917,
0.00708886,
0.00219201,
-0.00935567,
-0.0027912,
0.00263121,
0.00157421,
0.00731029,
0.0217838,
0.0165151,
0.0122201,
0.0113274,
0.00493801,
0.000820489,
0.00641973,
0.0244875,
0.0016214,
-0.00165461,
0.00122842,
0.00638737,
-0.0051106,
-0.0153015,
-0.0109141,
-0.0171915,
1.42E-05,
0.0135187,
-0.0135712,
-0.0207283,
-0.013612,
-0.0064582,
-0.00783805,
-0.0044756,
-0.00882486,
0.00193894,
0.0145535,
0.00847477,
0.0209311,
0.0140632,
0.00373867,
0.0155345,
0.0164463,
0.0205609,
0.0125124,
0.0308228,
0.0376312,
0.029707,
0.0277689,
0.0345725,
0.0216393,
0.0127602,
0.0338286,
0.0265869,
0.0251794,
0.0430354,
0.0296614,
0.0167708,
0.0255571,
0.0205734,
0.0147577,
0.0121469,
0.0329596,
0.0407739,
0.0456119,
0.0102414,
-0.0104905,
0.00460291,
-0.00080719,
0.00142418,
-0.00457494,
-0.00700393,
0.000274219,
-0.00589379,
-0.0198555,
-0.0186423,
-0.0181234,
-0.0121588,
-0.0248691,
-0.0352244,
-0.0362728,
-0.0278582,
-0.0177528,
-0.0255416,
-0.0161107,
-0.0113087,
-0.0203606,
-0.0138141,
0.0122153,
-0.00603075,
-0.0337575,
-0.00590799,
-0.00889475,
-0.0132619,
-0.00492658,
-0.00686438,
-0.00143194,
-0.00464586,
0.0114942,
0.00249023,
-0.0078651,
-0.00354676,
-0.00785386,
0.00397693,
0.00880793,
0.00114043,
-0.00639991,
-0.00717522,
-0.00781769,
-0.0147979,
-0.00497235,
0.0025655,
0.00975939,
0.0167728,
-0.00778717,
-0.00938366,
-0.00533108,
0.00340044,
-0.00600611,
-0.0196333,
-0.00608655,
0.00906513,
0.00284169,
0.0145661,
-0.00139847,
-0.00912834,
-0.0139664,
-0.00847202,
0.00799826,
0.0139166,
-0.0014032,
-0.00268943,
0.00584286,
-0.00753301,
-0.00139898,
-0.00181997,
0.00753667,
-0.00149996,
0.00115587,
-0.00279744,
0.000217442,
0.000473883,
-0.016934,
-0.0290452,
-0.0112808,
-0.00816242,
-0.0176053,
-0.029757,
-0.0315275,
-0.0302166,
-0.0336082,
-0.0511026,
-0.0555256,
-0.0520658,
-0.0473657,
-0.0691018,
-0.0684033,
-0.071321,
-0.0935448,
-0.0779375,
-0.0655864,
-0.095955,
-0.0770983,
-0.080349,
-0.0676394,
-0.0562412,
-0.065848,
-0.0743969,
-0.0460647,
-0.0443856,
-0.0356317,
-0.0383415,
-0.0173243,
-0.0129602,
0.000559006,
0.025901,
0.053272,
0.0769228,
0.0805827,
0.113194,
0.12498,
0.153221,
0.194412,
0.234033,
0.248498,
0.272627,
0.263232,
0.274049,
0.275139,
0.250791,
0.20697,
0.182641,
0.178244,
0.215083,
0.251988,
0.272214,
0.227129,
0.167292,
0.111374,
0.0617,
0.0112002,
-0.00868112,
-0.0184486,
-0.0400636,
-0.0776856,
-0.125438,
-0.165305,
-0.198522,
-0.237161,
-0.241503,
-0.218911,
-0.212668,
-0.206491,
-0.210144,
-0.214607,
-0.21862,
-0.225601,
-0.228603,
-0.22342,
-0.212146,
-0.193791,
-0.175447,
-0.173101,
-0.132657,
-0.0933911,
-0.0803298,
-0.057973,
-0.0644483,
-0.0404602,
-0.0296339,
0.0318596,
0.0520097,
0.0456108,
0.0382979,
0.0557037,
0.0656857,
0.0627994,
0.0535712,
0.0487313,
0.0693617,
0.062585,
0.0549762,
0.0577316,
0.0404534,
0.0530054,
0.0772796,
0.0631219,
0.0603837,
0.0383227,
0.0131231,
0.0179583,
-0.000254937,
0.00767274,
0.0195631,
0.0180911,
0.0139266,
0.00026139,
-0.00349764,
0.00635894,
0.013312,
0.0207471,
0.0165147,
-0.000368443,
0.0119992,
0.0180044,
0.0165037,
-0.00254607,
-0.00662703,
-0.00561923,
0.00872254,
0.0166481,
0.00488108,
-0.000206824,
0.00607195,
0.0102809,
-0.00457638,
-0.00144531,
0.00397329,
-0.00337368,
-0.00520259,
-0.015595,
0.0118913,
-0.00365934,
-0.0135388,
-0.00625904,
0.00134846,
0.0104151,
0.00686082,
-0.0151414,
-0.000571417,
0.0127024,
0.0148076,
-0.00623178,
0.00541384,
0.0102579,
0.000532103,
0.00487911,
-0.0119799,
-0.0118545,
-0.00623478,
-0.0140551,
-0.00683452,
0.00393683,
0.00887242,
-0.0007669,
0.00770742,
-0.00292534,
-0.0145411,
-0.0151651,
0.00750087,
0.00943935,
0.0023013,
-0.0043661,
0.000278939,
0.000700364,
-0.012974,
0.0092598,
0.00169913,
0.00301992,
-0.0123473,
-0.0109052,
-0.000907699,
0.00696369,
-0.00023806,
0.00402583,
0.00227717,
0.00195911,
-0.00615332,
-0.0176917,
-0.00579341,
0.00478106,
-0.00700653,
-0.021414,
-0.0120643,
0.00502116,
-0.00203832,
-0.00103967,
-0.0143156,
0.00344498,
-0.0100618,
-0.00774479,
-0.000608509,
0.0228364,
0.00934843,
-0.00967816,
-0.0125588,
-0.00803233,
-0.00872144,
0.00722043,
-0.0119914,
-0.0360953,
-0.00845172,
0.00782697,
0.00804798,
0.0193986,
0.0135595,
-0.00963063,
-0.0280008,
-0.0124214,
-0.0124105,
-0.00854786,
-0.00487785,
-0.00479742,
-0.0013464,
0.0151867,
-0.0128067,
-0.00732351,
0.00267156,
-0.0054746,
-0.0139581,
0.012017,
-0.0082976,
0.00213135,
0.0136933,
-0.00581127,
-0.00475527,
-0.0137195,
-0.0165167,
0.0208418,
0.00838501,
-0.000317004,
0.000728624,
0.0115273,
0.00166107,
0.0114304,
0.00669544,
0.012545,
0.00260683,
0.00925197,
0.00400432,
0.00547942,
0.00996049,
0.0260295,
-0.00489,
0.00103316,
0.01338,
0.0297275,
0.0219216,
0.0409418,
0.0314466,
0.0104313,
0.0112351,
0.00165715,
0.0108289,
0.0271009,
0.0249065,
0.0281979,
0.0138355,
0.0276177,
0.0140392,
0.00190625,
0.0158177,
0.00285707,
0.00979329,
0.0178553,
0.0304423,
0.0174552,
0.012555,
0.0186553,
0.0349477,
-0.00151769,
-0.00950295,
0.0168184,
0.0112596,
0.0299754,
0.028949,
0.0276,
-0.00109658,
0.0129302,
0.0141733,
0.024964,
0.0198947,
0.0280926,
0.0393611,
0.0530505,
0.00976765,
0.00984223,
-0.00320704,
0.0104252,
0.0259747,
0.0257972,
0.0312482,
0.00736686,
-0.00296926,
0.0243449,
0.0252184,
0.0180914,
0.0191383,
0.0105494,
0.00704211,
-0.00741374,
-0.00596426,
0.00652617,
-0.00361216,
0.00066943,
0.0124027,
-0.00839342,
-0.0102674,
-0.0073076,
0.00694979,
-0.0133013,
-0.029231,
-0.0165737,
-0.00122988,
0.00902523,
-0.0185047,
-0.0278344,
-0.00036013,
-0.0110136,
-0.0220946,
-0.0232511,
-0.0188568,
-0.0139322,
0.00430369,
-0.0144803,
-0.0346845,
-0.0252401,
-0.00572944,
-0.00398783,
-0.0248705,
-0.0371451,
-0.0238192,
-0.017096,
-0.00451369,
-0.0211874,
-0.0133891,
-0.0018308,
-0.00690064,
-0.0232562,
-0.0188533,
-0.0178019,
-0.00310753,
-0.0139298,
-0.0115894,
-0.0171213,
-0.0120746,
0.00403868,
0.00419594,
-0.00464182,
0.00730393,
-0.00220136,
-0.0129271,
-0.0250329,
-0.0127863,
-0.0132436,
-0.0241373,
-0.00371398,
-0.00569845,
-0.00888945,
0.016491,
0.00700869,
-0.0135461,
-0.0191171,
-0.0161758,
-0.0134586,
-0.0193786,
-0.0107926,
-0.00873591,
-0.015472,
-0.010123,
0.0086078,
0.0164487,
0.0163149,
-0.00651778,
-0.0132084,
-0.0115225,
0.000160426,
-0.0134356,
-0.0150883,
0.00135397,
0.00822078,
-0.0101831,
-0.0138845,
0.00860804,
0.0119847,
0.0146954,
0.0178744,
-0.00712042,
-0.0177272,
-0.00569168,
-0.0258722,
-0.0128897,
0.0123809,
0.033272,
-0.00329498,
-0.00815299,
-0.0044429,
-0.00316869,
-0.00141729,
-0.00242514,
0.00675395,
0.00540611,
-0.00501229,
-0.0141444,
-0.00499861,
0.0130391,
0.00873587,
0.0139716,
-0.00960694,
-0.0131279,
0.00130485,
-0.0159894,
-0.0031927,
0.000694992,
0.00392718,
0.00407693,
-0.0101831,
0.00678316,
-0.00360494,
0.000243157,
0.00861895,
0.0037227,
0.0056223,
-0.0178844,
-0.019866,
-0.0135907,
0.0059598,
-0.00134601,
-0.00330284,
-0.0125316,
0.0130444,
0.0326461,
0.011644,
-0.00238356,
-0.00360981,
-0.00125801,
-0.00795004,
-0.00993022,
-0.00153447,
0.0277559,
0.0368363,
0.019395,
-0.0146976,
0.00414305,
0.0202471,
-0.00878579,
-0.0166082,
0.00681119,
0.0108186,
-0.00685369,
0.00590061,
0.015743,
-0.00224973,
0.00499963,
-0.00927861,
-0.0149862,
-0.0095353,
-0.0157446,
-0.00966452,
-0.00149077,
-0.0153358,
-0.0110665,
0.0069482,
0.00116503,
-0.00818671,
-0.0185166,
-0.000856207,
0.0153436,
-0.00584108,
-0.016022,
-0.000309109,
0.011038,
0.00895891,
0.00543091,
0.0125929,
0.00584879,
0.00397221,
0.00291881,
0.00252789,
0.00619871,
0.00794426,
0.0103541,
0.006146,
0.00697127,
0.00425251,
0.00268187,
-0.0042148,
-0.00381632,
0.00695052,
0.00817932,
-0.00110271,
-0.00309649,
0.00429976,
0.00409225,
-0.0032355,
0.00399949,
0.00216869,
-0.00711122,
-0.0131611,
-0.0127456,
-0.0016583,
-0.00595402,
-0.00572853,
0.000798041,
-0.00449887,
0.0020078,
-0.000233395,
0.00285729,
-0.00927113,
-0.0294971,
-0.00830012,
0.0014038,
0.00269097,
0.00381615,
-0.0117254,
-0.00460811,
0.0196674,
0.0258241,
0.00949407,
-0.0120062,
-0.00647237,
0.00910449,
0.0167619,
0.00905608,
0.0112318,
0.0130938,
-0.00235046,
-0.00403096,
0.00675668,
0.00978288,
0.00860648,
0.0101845,
-0.00280001,
-0.00380925,
-0.00562925,
-0.023959,
-0.0269203,
-0.00318711,
0.00791496,
-0.0125495,
-0.00260249,
0.00134347,
0.00543627,
-0.013305,
-0.00649535,
0.00595903,
-0.00685212,
0.00199972,
-0.0071344,
-0.0111146,
0.00154755,
-0.00151488,
0.00801636,
0.0129861,
-0.00618847,
-0.000960828,
0.0215469,
0.00792986,
-0.0157595,
-0.0150538,
-0.00565214,
-0.0131249,
-0.00381374,
0.00188965,
-0.00281281,
-0.00675622,
0.00753585,
-0.00265954,
-0.0222928,
-0.0327538,
-0.0193159,
-0.0114308,
-0.011363,
0.00581051,
-0.00878026,
-0.022444,
-0.00394535,
-0.0139667,
-0.0139901,
-0.00741045,
0.00221547,
-0.00857361,
-0.0122635,
0.00247747,
-0.00270027,
0.00133565,
-0.0113038,
0.00485777,
0.0281384,
0.0239096,
0.0204933,
0.0172441,
0.0104417,
0.000410878,
-0.0073451,
0.017598,
0.0270164,
0.0196159,
-0.0136654,
-0.0016232,
-0.00364766,
-0.0072775,
0.000919648,
-0.000740021,
-0.0163009,
-0.0138812,
-0.00998535,
0.00153883,
-0.0166876,
-0.0204823,
-0.0229491,
-0.00741506,
-0.00251841,
-0.00258958,
0.00063069,
0.0252735,
0.0151915,
0.00130074,
0.0101479,
0.0189226,
0.0250426,
0.014598,
0.0183424,
0.0267347,
0.0210088,
0.0115271,
0.0270998,
0.0316437,
0.0292078,
0.0170438,
0.0100414,
0.0258407,
0.0299725,
0.0368382,
0.0265311,
0.0126417,
-0.00353934,
0.0236182,
0.0222574,
0.0156746,
0.021016,
0.0296965,
0.0143586,
0.0016942,
0.00383033,
0.0149308,
0.0170223,
0.0204506,
0.00206346,
-0.0104776,
-0.00164832,
-0.00770856,
-0.00552757,
-0.000779371,
-0.000593963,
-0.0176029,
-0.000191798,
-0.0173067,
-0.0403112,
-0.04251,
-0.0326473,
-0.0197897,
-0.0157545,
-0.0195733,
-0.0129618,
0.00278423,
-0.0140869,
-0.0255454,
-0.0179968,
-0.0118295,
-0.0152945,
0.0041382,
-0.00191433,
-0.00674708,
-0.00453038,
-0.0310239,
-0.0119448,
0.00189762,
0.0140679,
0.000781693,
0.000719979,
0.0116212,
0.0111572,
0.00370098,
-0.00184355,
-0.00482587,
-0.00394843,
0.0119575,
0.00292298,
-0.0151908,
-0.0195645,
-0.0111675,
0.00563207,
0.00332471,
0.00731798,
0.00515171,
-0.00204103,
0.000951517,
0.0060378,
0.00528783,
-0.0160254,
-0.013724,
-0.0232495,
-0.0115908,
0.00717125,
0.0273703,
0.0255386,
0.000216498,
-0.00636298,
-0.00116276,
-0.00215062,
-0.00900856,
-0.012357,
-0.011232,
-0.00062504,
-0.00336231,
-0.00925834,
0.00336124,
0.00859283,
-0.00668366,
-0.0214436,
-0.00997022,
-0.000759256,
0.000510496,
-0.00714717,
-0.0184075,
-0.0310204,
-0.0242877,
-0.013436,
-0.0212976,
-0.0190808,
-0.0216863,
-0.0370543,
-0.0587209,
-0.0627427,
-0.0413561,
-0.0478039,
-0.0477768,
-0.0655437,
-0.0709954,
-0.0582929,
-0.0758046,
-0.0756075,
-0.0610728,
-0.0703599,
-0.077216,
-0.0553835,
-0.0599992,
-0.0439209,
-0.0401062,
-0.040567,
-0.0245274,
-0.0189476,
-0.0087106,
-0.00345755,
0.00432491,
0.0274903,
0.0533225,
0.0784896,
0.0943165,
0.116884,
0.129741,
0.162875,
0.201927,
0.216025,
0.210374,
0.243252,
0.251234,
0.265553,
0.242669,
0.210558,
0.16806,
0.159152,
0.166308,
0.182674,
0.237959,
0.244217,
0.174339,
0.117244,
0.0854582,
0.0455487,
-0.0145613,
-0.0431905,
-0.0535507,
-0.0679155,
-0.09998,
-0.142723,
-0.177304,
-0.19815,
-0.207124,
-0.201874,
-0.206744,
-0.209818,
-0.200953,
-0.192164,
-0.191091,
-0.195815,
-0.197284,
-0.204729,
-0.189822,
-0.166628,
-0.16215,
-0.15451,
-0.139465,
-0.121015,
-0.0864902,
-0.0544465,
-0.0413332,
-0.0213599,
-0.017768,
-0.0151208,
0.00816785,
0.046335,
0.0428027,
0.0316144,
0.038558,
0.0447542,
0.0418389,
0.051868,
0.0510965,
0.0536424,
0.0655283,
0.059598,
0.0588571,
0.0565309,
0.056845,
0.0509129,
0.042305,
0.039605,
0.0272811,
0.0318738,
0.0346093,
0.0343506,
0.011187,
0.00572919,
-0.00112738,
0.00727524,
0.016038,
0.00977562,
0.00401168,
0.00698723,
0.00299297,
0.000593817,
0.0185501,
0.0170411,
0.00463305,
0.0191832,
0.011001,
-0.00406342,
0.00230134,
-0.000659569,
0.00355314,
0.00684167,
0.00806737,
0.00156101,
-0.00232524,
0.00562854,
-0.00468127,
-0.0138388,
0.00129442,
0.0012299,
-0.00837059,
-0.00938436,
0.00271812,
0.0054415,
0.00331575,
0.0130081,
0.0019905,
-0.00513998,
-0.00854569,
-0.00450501,
-0.00175692,
0.00406767,
0.00180249,
0.0040699,
0.00633861,
-0.00255758,
-0.00368504,
0.00279423,
0.00344839,
-0.00803406,
0.000711969,
0.00185186,
0.00347652,
-0.000564019,
-0.014316,
0.00105827,
0.00477769,
0.0117294,
0.0113938,
-0.00205594,
-0.00402327,
-0.00276251,
0.00156331,
0.00167068,
-0.000337959,
-0.00802415,
-0.00132273,
0.000831164,
-0.00302033,
-0.00171254,
0.00313487,
-0.0103262,
-0.00859878,
-0.00446869,
-0.00651405,
-0.00389375,
-0.0110117,
-0.00974443,
-0.00543352,
-2.21E-05,
0.00195768,
-0.00726314,
-0.00454429,
-0.00736412,
-0.0001882,
0.0132605,
0.0189022,
-0.00171212,
-0.00845017,
-0.0119931,
-0.00554476,
0.00264128,
-0.0173733,
-0.0214099,
-0.0135143,
-0.0122965,
-0.0112831,
0.0015014,
0.00421098,
0.00170118,
0.0104793,
-0.00359918,
-0.0133459,
-0.0244236,
-0.0214568,
-0.0123736,
-0.00671961,
0.00877687,
-0.0074715,
0.0013389,
0.0107746,
-0.00133226,
0.00143208,
0.00968429,
0.00578797,
-0.000868114,
-0.00639727,
-0.00594181,
-0.00127889,
0.00047402,
0.00239462,
0.0106353,
0.00642719,
0.00142479,
-0.00355969,
-0.00140282,
-0.0124918,
-0.0114166,
0.00360597,
0.00247908,
0.012231,
0.0233171,
0.0132466,
-0.0045457,
-0.0083718,
0.0020952,
0.0179581,
0.0198008,
0.00649392,
-0.00367277,
0.00937068,
0.0109967,
0.0120511,
0.0117283,
0.0122974,
0.00162511,
0.0109476,
0.0117871,
0.00964954,
-0.00144882,
0.011185,
0.0150279,
0.0204408,
0.011245,
0.00686414,
0.0142609,
0.0115929,
0.0158561,
0.0111959,
0.0118573,
0.014446,
0.0239827,
0.0181395,
0.0153684,
0.0085527,
0.0198664,
0.0242295,
0.0305456,
0.0231203,
0.02445,
0.0243417,
0.0240918,
0.0222452,
0.0213921,
0.0283295,
0.0262276,
0.0186459,
0.0159405,
0.0258773,
0.0296825,
0.0250877,
0.0234176,
0.0219175,
0.0189648,
0.0192475,
0.0158019,
0.0186552,
0.0145312,
0.0123235,
0.0238381,
0.0267352,
0.0117822,
0.00243574,
0.0122802,
0.0131485,
0.0103715,
0.00911799,
0.00517054,
0.00272671,
0.00711673,
0.00279513,
0.00609637,
-0.000466865,
-0.00962223,
0.00208548,
0.00228136,
-0.00920567,
-0.0213803,
-0.00932985,
-0.0104446,
-0.0189065,
-0.017084,
-0.0155028,
-0.0182151,
-0.0163263,
-0.00870934,
-0.019805,
-0.0258293,
-0.0122217,
-0.00325999,
-0.00558196,
-0.0209703,
-0.0238584,
-0.0111732,
-0.0160904,
-0.0212953,
-0.0127094,
-0.0126647,
-0.0206756,
-0.00874519,
-0.00923796,
-0.0182688,
-0.0109149,
-0.0116103,
-0.0108053,
-0.0161037,
-0.00614193,
-0.0241254,
-0.0171342,
-0.015589,
-0.0149559,
-0.0158795,
-0.012693,
-0.0108956,
-0.00449689,
0.00634424,
-0.00167252,
-0.00329934,
-0.00824311,
-0.0229742,
-0.014801,
-0.00265478,
0.00391921,
-0.0104503,
0.0026253,
0.00188223,
-0.0147811,
-0.00998075,
0.00107359,
0.000582776,
-0.004331,
-0.00751658,
-0.0080013,
-0.0114475,
-0.00911478,
-0.00213447,
-0.00393659,
-0.00561911,
-0.0065332,
-0.010723,
0.000908601,
-0.00254588,
-0.00231301,
-0.00437892,
-0.00696208,
-0.00585356,
0.000566261,
-0.00388397,
-0.00803693,
-0.00266727,
-0.00347108,
0.00249887,
0.00941777,
-2.90E-05,
0.00166992,
0.000598094,
-0.005024,
-0.00322071,
-0.00418673,
0.00259695,
0.0024043,
0.00316494,
0.00164242,
-0.00200144,
-0.00420647,
-0.0143587,
0.00314382,
0.0023421,
-0.00268489,
-0.000771082,
-0.000493217,
-0.005735,
-0.00969947,
-0.0140046,
0.0088607,
0.00258108,
-0.0088924,
-0.0109946,
-0.0025918,
-0.00536793,
-0.00734672,
0.00393366,
0.0105116,
0.00300253,
-0.00499885,
-0.0073417,
-0.00353914,
-0.000871993,
-0.000309828,
0.00510727,
0.00680378,
0.00542826,
-0.000960037,
0.0028517,
0.00197639,
-0.000510398,
-0.000562207,
0.00279257,
0.00340502,
0.00289383,
0.00368669,
0.00626926,
0.00530131,
-0.00391018,
0.00177594,
0.00213108,
0.00152432,
-0.00344303,
0.00211675,
0.00849365,
-9.95E-06,
-0.00429886,
-0.00437349,
-7.24E-05,
0.0065004,
-0.00213281,
-0.0094659,
0.000359973,
-0.000651429,
0.000122307,
0.00899239,
-0.00462646,
4.62E-05,
-0.00563279,
-0.00548065,
0.00244479,
0.00519764,
0.00213087,
0.00052702,
-0.00365924,
0.00413688,
0.00789488,
0.00810061,
0.00718186,
0.00400621,
-0.00676626,
-0.0123509,
-0.000610236,
0.00402008,
0.0102791,
0.0102374,
0.000820799,
-0.00599543,
0.00451524,
-0.00826558,
-0.0165035,
0.00375208,
0.00589504,
0.00351895,
0.0069808,
-0.00135853,
0.00730615,
0.00255134,
0.00169246,
0.000683728,
-0.00452067,
0.00808758,
0.0016117,
0.00340024,
0.00859811,
0.00264057,
0.00251914,
0.00208402,
0.000525667,
-0.00426009,
-0.00224043,
-0.00150721,
-0.00756305,
-0.00422582,
0.00882756,
0.00246763,
-0.0025924,
0.00254729,
0.00202697,
-0.00415408,
0.0042318,
0.000806032,
-0.0010005,
0.000591536,
-0.00380462,
-0.000596264,
-0.000788406,
0.00743158,
0.00642384,
0.00622095,
0.010868,
0.000621407,
-0.00785105,
-0.00840041,
-0.0123549,
-0.00434121,
-0.00216046,
0.00211685,
-0.00510268,
-0.00472326,
-0.00192304,
0.00329839,
-0.0099341,
-0.000353991,
-0.0048571,
-0.00790722,
-0.000926617,
0.00152122,
0.00396844,
-0.000218859,
-0.00165369,
0.00354878,
0.00940193,
0.0149357,
-0.004285,
-0.00472792,
0.0055162,
0.000393703,
-0.00488331,
-0.00141415,
0.00513728,
0.007165,
0.00887622,
0.00444469,
0.00293209,
0.00433762,
-0.00282941,
0.00279105,
-0.00129624,
-0.00586852,
-0.00704347,
0.00132672,
0.00532321,
0.00284047,
0.00293896,
-0.00668205,
-0.00709072,
0.00381476,
0.00499497,
8.16E-06,
-0.000143334,
-0.00678929,
-0.00892731,
-0.0112522,
-0.0134422,
0.00165481,
0.00264251,
-0.00384586,
-0.00340936,
-0.00527377,
-0.0138101,
-0.00992431,
-0.00251857,
0.000799655,
-0.00369326,
-0.0033764,
-0.00666635,
-0.004826,
-0.00254985,
-0.00420868,
-0.00430176,
-0.0018594,
-0.00643057,
-0.000377131,
0.00335392,
0.00460014,
-0.00149367,
-0.00764541,
-0.0164441,
-0.0170469,
-0.0134986,
-0.0083872,
-0.01223,
-0.0143444,
-0.0153754,
-0.00561098,
-0.00802745,
-0.0227835,
-0.018643,
-0.00887207,
-0.0112679,
-0.0157932,
-0.0119253,
0.007622,
0.00433781,
-0.00300222,
0.00324463,
0.00447157,
0.00942028,
0.0103258,
0.0232113,
0.0213774,
0.0244067,
0.0246947,
0.0135035,
0.00232362,
0.01106,
0.013335,
0.0112524,
-0.00813412,
0.00226706,
0.0144598,
-0.00553932,
-0.0125803,
-0.0301273,
-0.0211208,
-0.00902423,
-0.0194042,
-0.018598,
-0.012752,
-0.0122191,
-0.009551,
-0.00490442,
-0.00248124,
0.00711068,
0.0199942,
0.00656194,
-0.00825713,
0.010823,
0.0117019,
0.0165579,
0.022486,
0.0257723,
0.0249677,
0.0328639,
0.0226045,
0.0208971,
0.0259674,
0.0226084,
0.0147082,
0.0210418,
0.0210596,
0.0249578,
0.0256165,
0.0243294,
0.0253023,
0.0172045,
0.0163766,
0.0241083,
0.0245349,
0.0255791,
0.0280425,
0.0307839,
0.0253795,
0.023471,
0.0214882,
0.0066362,
-0.00831151,
-0.0062123,
0.000947457,
0.00247604,
-0.000342988,
-0.00266566,
0.00051411,
-0.00489281,
-0.0120994,
-0.0159364,
-0.0266075,
-0.0297181,
-0.0281883,
-0.0215393,
-0.017059,
-0.0149145,
-0.0121972,
-0.0106907,
-0.00861794,
-0.00905577,
-0.00698908,
-0.00711177,
-0.00861502,
-0.010204,
-0.0117161,
-0.0039261,
-0.00981184,
-0.00962852,
-0.00677233,
-0.00884669,
-0.00711028,
-0.0075479,
-0.00805285,
-0.00231086,
0.000780697,
-0.010103,
-0.0108465,
-0.00791975,
-0.00795466,
-0.00415139,
0.00268392,
-0.00443764,
-0.00285744,
-0.00147323,
-0.0023861,
-0.00203333,
-0.00170717,
-0.000434414,
-0.00403877,
-0.00426521,
-0.00321585,
-0.00315488,
-0.00456672,
0.0016117,
0.0025964,
0.00518406,
0.003872,
0.00238115,
0.00135713,
0.00193036,
-0.00383175,
-0.0046052,
-0.00767694,
0.000702687,
0.000945991,
3.90E-06,
0.00239886,
-0.000455742,
0.00421352,
0.00150655,
-0.00664784,
-0.00149192,
-0.00229827,
-0.000991693,
-0.00891701,
-0.0154113,
-0.0143433,
-0.0147939,
-0.0184,
-0.017736,
-0.0196168,
-0.0242218,
-0.0286542,
-0.0355185,
-0.0470933,
-0.0570785,
-0.0648353,
-0.0559668,
-0.059604,
-0.073318,
-0.0744476,
-0.0746343,
-0.0748344,
-0.079883,
-0.084415,
-0.0811179,
-0.0757819,
-0.069984,
-0.0606031,
-0.0655504,
-0.0635697,
-0.0455375,
-0.0364715,
-0.0308002,
-0.019551,
-0.0128443,
-0.00332157,
0.0202602,
0.0383968,
0.0545623,
0.0811293,
0.101985,
0.12367,
0.143979,
0.182225,
0.223244,
0.244096,
0.257436,
0.267006,
0.277674,
0.275685,
0.257146,
0.224141,
0.183109,
0.16864,
0.188125,
0.2292,
0.262502,
0.245712,
0.185698,
0.125247,
0.0649024,
0.0223583,
-0.0120452,
-0.0301685,
-0.039732,
-0.0457045,
-0.0808871,
-0.143771,
-0.191737,
-0.224885,
-0.243954,
-0.229933,
-0.214454,
-0.21684,
-0.217567,
-0.216519,
-0.213408,
-0.223632,
-0.227462,
-0.22749,
-0.222254,
-0.207206,
-0.192999,
-0.17604,
-0.147872,
-0.116859,
-0.0984829,
-0.080708,
-0.0602336,
-0.0428183,
-0.0117246,
0.0209807,
0.0403184,
0.0486238,
0.0563221,
0.0521516,
0.0478269,
0.0573249,
0.062253,
0.0686502,
0.0692812,
0.0700136,
0.0691042,
0.0652905,
0.0624833,
0.0589248,
0.0556035,
0.0436322,
0.0403354,
0.0381125,
0.0340524,
0.0294483,
0.0220308,
0.0142208,
0.00601009,
0.00823102,
0.0121338,
0.00589288,
0.00454547,
0.010344,
0.00951996,
0.00837147,
0.00640021,
0.00310828,
0.00835527,
0.0116112,
0.00202328,
0.00385572,
0.00641902,
0.00307011,
0.00108381,
0.00320452,
0.0058661,
0.00420842,
0.00162516,
0.00151054,
0.00418453,
0.00737832,
0.00477778,
0.00479537,
0.00694331,
0.00150991,
-0.0116686,
-0.00605422,
0.00669972,
0.00798156,
0.00604297,
0.0065464,
0.000751724,
0.00289828,
0.00100944,
-6.14E-05,
-0.001934,
0.000892444,
-0.000322149,
0.000893946,
0.00292113,
-0.000229483,
-0.00402798,
-0.00216429,
-0.00629108,
-0.000226712,
0.00178706,
-0.000897978,
0.00191245,
0.000993448,
-0.000257277,
-0.00896071,
-0.00472717,
-0.0060054,
-0.00486628,
-0.00470853,
0.0032062,
-0.000217984,
-9.33E-05,
-0.000303791,
-0.000688002,
-0.00108439,
0.000448615,
-0.000458704,
-0.00057026,
-0.00166666,
0.00240093,
-0.0013143,
-0.00164703,
-0.00151095,
0.00054949,
0.000487658,
0.00315735,
0.000789776,
-0.000790394,
-0.000775181,
-0.00240229,
-0.0050256,
-0.00589519,
-0.00582134,
-0.0070707,
-0.00317123,
-0.00431897,
-0.00436537,
-0.00509128,
-0.00277534,
-0.00308204,
-0.00423168,
-0.00832831,
-0.00841351,
-0.00788569,
-0.00674475,
-0.0106544,
-0.0102284,
-0.00692259,
-0.00445857,
0.000239064,
5.07E-05,
-6.32E-06,
-0.00203474,
0.00141043,
0.00320983,
0.00627743,
-0.000551662,
0.000524756,
-0.00440915,
-0.00968806,
-0.0115885,
-0.000722937,
0.0017109,
0.000893227,
0.00410815,
0.00164803,
-0.000497371,
-0.00119298,
-0.00723308,
-0.00841994,
-0.00572176,
-0.00204846,
-0.00775386,
-0.0032536,
0.000127852,
0.000290326,
-0.00680815,
0.00100657,
0.0103068,
0.00847389,
0.0084582,
0.00281972,
0.00289045,
0.00495246,
0.0096571,
0.0115063,
0.0114748,
0.0081102,
0.00950747,
0.0138902,
0.0144651,
0.0151194,
0.013429,
0.00923523,
0.00788141,
0.0109888,
0.00949781,
0.0118263,
0.0131223,
0.0114465,
0.0116563,
0.00987073,
0.00754885,
0.0108429,
0.0106934,
0.0113107,
0.0133451,
0.0161525,
0.0140719,
0.0105052,
0.0125759,
0.00895957,
0.00953115,
0.0102484,
0.0145132,
0.0194161,
0.0139562,
0.0164233,
0.0198618,
0.0190962,
0.0236769,
0.0230877,
0.0231561,
0.0264731,
0.0249486,
0.0223052,
0.0229125,
0.0236954,
0.0227111,
0.0241655,
0.0282183,
0.0256427,
0.0263065,
0.0243801,
0.0221243,
0.018401,
0.0196776,
0.0267566,
0.0224775,
0.0183225,
0.0146076,
0.0124571,
0.00619868,
0.0048856,
0.0060814,
0.000876286,
0.000750545,
0.00488555,
0.00453312,
0.000492915,
-0.00255149,
0.000245447,
-0.00342424,
-0.0108184,
-0.00738124,
-0.00315444,
-0.00559013,
-0.00579558,
-0.00928035,
-0.00844563,
-0.00621103,
-0.00905594,
-0.00582027,
-0.00670467,
-0.0136563,
-0.0184267,
-0.019564,
-0.0159393,
-0.012735,
-0.00801229,
-0.006791,
-0.010692,
-0.0109791,
-0.0155837,
-0.0177109,
-0.019466,
-0.0169662,
-0.0152292,
-0.0115045,
-0.0114565,
-0.0139525,
-0.0147851,
-0.0121739,
-0.0112968,
-0.0166843,
-0.0184641,
-0.0100003,
-0.00731242,
-0.00845716,
-0.00971092,
-0.0130139,
-0.0118911,
-0.0115189,
-0.0115716,
-0.012856,
-0.0143988,
-0.0147409,
-0.014689,
-0.0101946,
-0.00934637,
-0.00955225,
-0.00983842,
-0.00955466,
-0.00821258,
-0.00435279,
-0.00266536,
-0.00444196,
-0.00417759,
-0.00559141,
-0.00916608,
-0.0045419,
-0.00174946,
-0.00483177,
-0.00440032,
-0.00142359,
-0.00382867,
-0.0022273,
0.000631716,
-0.00463544,
-0.00119671,
-0.000701647,
-0.00282471,
-0.00173832,
-0.00229558,
-0.0054658,
-0.00509803,
-0.00297089,
-0.00571792,
-0.00346641,
-0.00301188,
-0.00144037,
0.000278145,
-0.000930152,
-0.0021516,
-0.000472643,
-0.0010712,
-0.000224811,
0.00400875,
0.00143457,
0.0033806,
0.000946285,
0.00141365,
0.00219317,
0.00279892,
-0.00113895,
-0.00314799,
-0.00177247,
-0.000735226,
-0.00197903,
-0.000649978,
-0.000471038,
-0.00144316,
-0.00211087,
-0.00360787,
-0.00706786,
-0.0066659,
-0.00126996,
-0.00269408,
-0.00624584,
-0.0054526,
-0.00743505,
-0.00216007,
-0.000146406,
-0.00641053,
-0.00638767,
-0.00185741,
-0.00414696,
-0.00435497,
-0.00328954,
-0.00111132,
0.00088643,
-0.00214962,
-0.00487757,
-0.00325,
-0.00050163,
-0.00310362,
-0.00409544,
-0.00218045,
-0.00140229,
2.12E-05,
-0.00179184,
-0.0010136,
0.00397609,
0.0041168,
0.00119036,
0.00652634,
0.00604731,
0.00428582,
0.00545062,
0.00209875,
-0.000914049,
0.00175328,
0.00217181,
0.00471129,
0.00985748,
0.00741537,
0.00499079,
0.00355452,
0.00342989,
-0.000238347,
-0.000815826,
-0.000406939,
0.00195856,
-0.000840492,
-0.00119906,
0.00120565,
-0.000747632,
-0.00204316,
-0.00219633,
0.00105756,
0.00173008,
0.00176236,
0.00341922,
0.000874201,
-0.000533058,
-0.000155822,
0.00135809,
-0.00133206,
0.000997493,
0.00025509,
-0.00258855,
-8.96E-05,
0.00111701,
-0.00236725,
-0.00374562,
0.000380301,
-0.000346347,
0.000709458,
0.00225324,
0.00201959,
-0.00160959,
0.00107553,
0.00457302,
-1.74E-05,
-0.00330956,
-0.0019049,
0.000798365,
0.00221117,
0.00330462,
0.00132774,
0.000973604,
0.000947632,
0.0022208,
-0.00232732,
0.000249392,
0.000888507,
0.000560855,
0.0042829,
0.00347761,
0.00283773,
-0.00265364,
-0.00798016,
-0.00505078,
0.000470218,
0.00356587,
0.00536861,
0.00328888,
0.00153384,
0.00139779,
0.000291194,
-0.00194805,
0.00244751,
-0.00238138,
-0.00445967,
-0.00200739,
-0.00198315,
-0.00228323,
0.00243273,
0.00374982,
0.000211749,
-0.00138452,
-0.0020097,
-0.00344357,
-0.00293471,
-0.00129188,
-0.000618424,
-0.000913906,
0.0013823,
0.000121195,
-0.000489301,
0.00294957,
-0.00105157,
-0.000517211,
0.00164,
0.00493475,
0.0037032,
0.0060367,
0.00335834,
-0.00141918,
-0.00149939,
0.00149906,
0.00207357,
0.0050784,
0.00225971,
0.00106082,
0.000348122,
-0.00165933,
-0.00188774,
0.00160388,
0.00153236,
-0.00210325,
-0.002669,
-0.00194589,
-0.000905734,
-0.000843949,
-0.00159942,
0.000872893,
-6.24E-05,
-0.000845605,
-0.0055226,
-0.0082678,
-0.00730115,
-0.00246073,
-0.00313229,
-0.005108,
-0.00094337,
-0.00131843,
-0.000568614,
-0.00112061,
-0.00103173,
-0.0011103,
0.00123373,
0.00211735,
-0.00072419,
-0.000978858,
-0.00107332,
-0.00116872,
0.000515636,
0.0018765,
0.00453255,
0.00767496,
0.0064491,
0.00312064,
0.00448627,
0.0024545,
-0.00443136,
-0.00273999,
0.00251154,
0.00743892,
0.00297927,
-0.00471854,
-0.00416539,
-0.00134949,
-0.00225904,
-0.00203978,
-0.00247234,
-0.00145343,
-0.00222001,
-0.00331596,
-0.0057125,
-0.00309853,
-0.00275635,
-0.00047846,
-0.00306152,
-0.00176671,
-0.000639504,
-0.0011361,
-0.00228524,
-0.00295386,
-0.000714269,
0.00443379,
0.00310454,
0.00209484,
-0.00118452,
0.00168136,
0.00227723,
0.00141181,
0.000379116,
-0.0011453,
0.00104506,
0.00338876,
0.00167682,
0.00173332,
-3.88E-06,
0.000508727,
0.00148866,
-0.000465035,
-0.00130946,
-0.00250398,
-0.00162426,
-0.0020718,
-0.00320252,
-0.00307771,
-0.00331882,
-0.00781281,
-0.00636756,
-0.00384068,
-0.0067078,
-0.00930728,
-0.00759537,
-0.00756127,
-0.0108244,
-0.00994145,
-0.00944379,
-0.00868384,
-0.0115447,
-0.0162449,
-0.017766,
-0.0185331,
-0.0178961,
-0.0100259,
-0.0112634,
-0.0139987,
-0.0138582,
-0.00873357,
-0.00865329,
-0.00147554,
0.00228579,
-0.00027738,
-0.00689478,
-0.00510123,
0.00980053,
0.00933288,
0.0158316,
0.0203994,
0.0230391,
0.0250477,
0.0218961,
0.0113203,
0.00578207,
0.0119173,
0.0145148,
0.0148696,
0.00812688,
0.00626207,
-0.00415645,
-0.00565121,
-0.00679876,
-0.0129389,
-0.0122573,
-0.0154336,
-0.0146982,
-0.0165221,
-0.0176663,
-0.0110069,
-0.00495523,
0.000978611,
0.0043722,
0.00118537,
0.00566497,
0.00454765,
-0.000541402,
0.0104716,
0.0141291,
0.0131899,
0.0194749,
0.0274897,
0.0246191,
0.0246256,
0.0221757,
0.0205122,
0.0251431,
0.025069,
0.0194851,
0.0205319,
0.0185022,
0.0211653,
0.0231812,
0.0264915,
0.0221938,
0.0230699,
0.0210243,
0.0226871,
0.0308034,
0.0338764,
0.0251014,
0.0263162,
0.0221376,
0.0266342,
0.0262017,
0.0219612,
0.00920812,
-0.00624402,
-0.00595915,
-0.00839781,
-0.0126012,
-0.00482604,
0.00294094,
-0.0061415,
-0.0107228,
-0.0242446,
-0.0294007,
-0.0224777,
-0.0235496,
-0.0258266,
-0.0233269,
-0.0304581,
-0.0257013,
-0.0173126,
-0.0161368,
-0.0116564,
-0.00985959,
-0.0120407,
-0.00865116,
-0.00956073,
-0.00311581,
-0.000641675,
-0.00828475,
-0.00824071,
-0.0108629,
-0.00627593,
-0.00094906,
-0.00183678,
-0.00391842,
-0.00201149,
-0.000319561,
-0.00401725,
-0.00420036,
0.00220935,
-0.0025857,
-0.00304694,
0.0035797,
-1.85E-05,
-0.00542388,
-0.00502824,
-0.00109496,
-0.00187524,
-0.00235068,
-0.0052708,
-0.00723595,
-0.00727412,
-0.00684099,
0.00296439,
0.00579761,
0.00554224,
0.00252125,
-0.00229558,
-0.0097191,
-0.00858557,
-0.00520925,
-0.0010503,
0.0072851,
0.0112147,
0.00215522,
0.00210781,
0.00831292,
0.00700564,
0.000602611,
-0.00508235,
-0.00553128,
-0.00658432,
-0.00631512,
-0.00975701,
-0.0109402,
-0.00713228,
-0.0106518,
-0.0152076,
-0.0137003,
-0.016346,
-0.0231657,
-0.0278692,
-0.0265929,
-0.0397464,
-0.0456632,
-0.0472727,
-0.0484734,
-0.0585014,
-0.0679801,
-0.0701187,
-0.0738197,
-0.0789195,
-0.0776438,
-0.0793673,
-0.0818076,
-0.100155,
-0.100558,
-0.0930182,
-0.0842916,
-0.075627,
-0.0593671,
-0.0623176,
-0.0688801,
-0.0534179,
-0.0483854,
-0.0384941,
-0.0335349,
-0.0203168,
-0.00425709,
0.0184523,
0.0477353,
0.0708924,
0.0875208,
0.100127,
0.134031,
0.162763,
0.206452,
0.24622,
0.265931,
0.276301,
0.293218,
0.287567,
0.291396,
0.274111,
0.228248,
0.203295,
0.197427,
0.229199,
0.285112,
0.307152,
0.267885,
0.205564,
0.145492,
0.0831876,
0.0360098,
0.00302762,
-0.0171781,
-0.0271607,
-0.0495397,
-0.0926923,
-0.147839,
-0.200369,
-0.239873,
-0.25351,
-0.237813,
-0.223614,
-0.236882,
-0.246609,
-0.245243,
-0.244963,
-0.258258,
-0.262329,
-0.252003,
-0.245562,
-0.229882,
-0.212379,
-0.184442,
-0.165284,
-0.134138,
-0.10373,
-0.0765842,
-0.0626653,
-0.0497634,
-0.0135296,
0.0338136,
0.056741,
0.0554901,
0.0518204,
0.0534095,
0.0582228,
0.0559684,
0.0653173,
0.071114,
0.0756753,
0.0758106,
0.0675147,
0.0657107,
0.0680012,
0.0583896,
0.054049,
0.0517574,
0.0468321,
0.0413827,
0.0462537,
0.0271364,
0.0107282,
0.0146611,
0.014814,
0.00777763,
0.0123116,
0.0169128,
0.0171978,
0.00506073,
0.0143087,
0.0166072,
0.00660171,
-0.0030994,
0.00367321,
0.0102386,
0.00800803,
-0.00335337,
0.00559665,
0.00669076,
0.00348059,
-0.00193783,
0.000138209,
-0.000168866,
-0.000113412,
0.00159444,
0.00834893,
7.99E-05,
-0.0101077,
-0.00538659,
0.000971183,
0.0026524,
0.00774672,
0.00541028,
0.00130577,
0.000125062,
0.013195,
0.00297095,
-0.006274,
-0.00191807,
0.000340774,
0.00131095,
0.00115358,
0.0029427,
-0.000280941,
5.88E-05,
0.00606508,
-0.00216754,
-0.00327853,
-0.00422708,
0.00226842,
0.00374667,
0.00247266,
-0.00592352,
-0.00105223,
-0.000876842,
-0.00620705,
0.00140484,
0.00205352,
-0.00652722,
-0.00427149,
0.00283239,
0.00102835,
-0.00838987,
-0.00875503,
-0.00767405,
0.00828355,
0.0162989,
-0.00304878,
-0.00639126,
-0.00279258,
0.00774546,
0.0137312,
0.00674761,
-0.00187959,
-0.00211935,
-0.00870022,
-0.00722193,
-0.00367445,
-0.005666,
-0.00624032,
-0.00313409,
-0.00314619,
-0.00838239,
-0.00411831,
0.00203851,
-0.00253593,
-0.0128262,
-0.0215512,
-0.0230476,
-0.0202288,
-0.0134187,
-0.0111939,
-0.0120976,
-0.0124071,
-0.00678132,
-0.00314842,
0.0088499,
0.016431,
0.000339247,
-0.00851428,
-0.0164387,
-0.0130746,
-0.00424553,
-0.0103391,
0.00117461,
0.0065095,
0.00275537,
0.00172822,
0.00456347,
-0.00637543,
-0.00486994,
-0.00289273,
-0.00173595,
0.00248668,
-0.000903029,
-0.000736668,
0.00201712,
0.00590418,
-0.00412314,
0.00187545,
0.00496845,
-0.000991282,
-0.00143698,
0.00201545,
-0.0110218,
-0.00413516,
0.00439146,
0.0190918,
0.0182838,
-0.00110452,
-0.00638121,
-0.00126533,
-0.00242202,
0.00487813,
0.00914858,
0.00311041,
0.00375882,
-0.00265809,
-0.00675086,
0.00281191,
0.0088801,
0.0127519,
0.0163729,
0.0140828,
0.017213,
0.0194561,
0.0148281,
0.0104531,
0.0132933,
0.00894997,
0.010211,
0.0133583,
0.0214702,
0.019177,
0.00356964,
-0.0107837,
-0.00575438,
0.00781897,
0.0113302,
0.0321319,
0.0339788,
0.0215679,
0.0253265,
0.0208225,
0.00271964,
-0.0111775,
-0.00371138,
0.019943,
0.0303365,
0.0342692,
0.0272131,
0.0293993,
0.0319302,
0.0268785,
0.0194247,
0.0184711,
0.0178697,
0.0219908,
0.0292167,
0.0367966,
0.0340496,
0.0148256,
0.0155343,
0.0159457,
0.0188087,
0.0260622,
0.0200639,
0.00582655,
0.0150638,
0.0197746,
0.0322524,
0.0482834,
0.0286991,
0.0134637,
0.00823333,
0.0138092,
0.0136765,
0.0065315,
0.0109751,
0.0101675,
0.00879173,
0.0228584,
0.0114148,
0.00196093,
0.00209181,
0.00564724,
0.0152056,
0.00664397,
-0.0117952,
-0.0140682,
-0.0128078,
-0.0232357,
-0.0165564,
-0.0130076,
-0.0132453,
-0.000771785,
0.00466223,
-0.011677,
-0.0271405,
-0.0347762,
-0.0264984,
-0.0249683,
-0.0114184,
-0.0115836,
-0.0120356,
-0.0171469,
-0.0173723,
-0.0138465,
-0.0159573,
-0.0259712,
-0.0183204,
-0.0127482,
-0.0123294,
-0.0151216,
-0.0182116,
-0.016258,
-0.01104,
0.000356547,
-0.00439888,
-0.0152714,
-0.0117071,
-0.0186255,
-0.0258294,
-0.0185903,
-0.0163252,
-0.00268709,
-0.0208814,
-0.0209011,
-0.0121296,
-0.0034645,
-0.0169118,
-0.0129828,
0.00816337,
-0.00638788,
-0.0252393,
-0.0182881,
-0.00284705,
-0.0128969,
-0.00474138,
-0.0131706,
-0.00419796,
0.00567293,
-0.000223314,
-0.00375935,
-0.0169077,
-0.00924227,
-0.00519637,
-0.000398182,
-0.0069823,
-0.00844003,
0.00202764,
0.00306171,
-0.0129416,
-0.0118347,
-0.00688559,
-0.00909665,
-0.0026071,
0.00222776,
0.00379118,
-0.00600675,
-0.0014342,
-0.00239465,
-0.00306119,
-0.00213814,
0.000699105,
-0.00442002,
-0.0048722,
-0.00454057,
0.00110668,
0.00381698,
0.000354334,
0.00204714,
-0.00631588,
-0.00806608,
-0.00336486,
0.00374255,
0.00128141,
0.00106554,
-0.00629052,
-0.00508902,
-0.00811369,
-0.00743439,
-0.00871435,
0.00843737,
0.000651964,
-0.00213168,
-0.0118878,
-0.00757794,
-0.00230895,
0.0035966,
0.00835975,
0.00664139,
-0.0128852,
-0.00506904,
-0.00907113,
-0.00498557,
0.0117199,
0.013374,
0.00240515,
-0.00969604,
0.00215452,
0.000899208,
0.00029401,
0.0145803,
0.010584,
-0.00344139,
-0.00759079,
-0.00299684,
-0.00487119,
-0.00107681,
0.00838623,
0.0134845,
0.0061266,
-0.00478731,
0.00550214,
-0.00572761,
-0.00675867,
0.00435071,
0.00656288,
-0.00238783,
-0.0153811,
-0.00927549,
-0.000415521,
0.0126555,
0.011004,
0.00239823,
-0.0277259,
-0.0123716,
0.00541592,
0.00961631,
0.00735067,
0.00412183,
-0.0024969,
-0.0116957,
-0.00421628,
0.0137925,
0.00219815,
0.00696023,
0.00898366,
-0.00160256,
0.000770602,
0.0114104,
0.00766134,
0.00700068,
0.00392633,
-0.00415111,
-0.00444753,
0.00158028,
0.00567871,
0.00250697,
-0.00761188,
-0.00250819,
0.00309109,
0.00513953,
0.00217993,
0.00327381,
0.00113816,
-0.00438963,
-0.00457165,
0.00463703,
0.00203637,
-0.00849041,
-0.00574458,
-0.00154002,
0.00120991,
0.00363762,
0.00299174,
0.00817253,
0.00364443,
0.00478094,
-0.00330603,
-0.00459553,
-0.00831156,
0.00723093,
0.00335553,
-0.0108751,
-0.0192779,
-0.00388963,
0.00357205,
0.00326947,
0.00345629,
0.00283845,
0.00675675,
0.00970963,
0.0155815,
0.00511537,
-0.00728552,
-0.0145003,
-0.0174995,
0.00135661,
0.00743741,
0.00996748,
0.00376877,
0.00939366,
0.0117926,
0.00449276,
0.00189707,
-0.0052184,
0.00175664,
0.00372674,
-0.00464829,
-0.0175427,
-0.00809312,
0.00250092,
-0.00323805,
0.0114245,
0.00975338,
0.00161975,
-0.00828396,
-0.0045848,
0.00235961,
0.0117393,
0.0135202,
0.00624487,
0.00285837,
-0.00165701,
0.00904209,
0.00744385,
0.000991094,
-0.00254973,
0.00264591,
-0.00656445,
-0.00882079,
-0.00396236,
0.00169857,
-0.00429953,
-0.00868764,
-0.00369866,
0.0080777,
0.00285255,
0.000692294,
-0.0202497,
-0.0229149,
-0.00924489,
0.00927109,
-0.00960321,
-0.00469647,
-0.00303299,
0.000242903,
0.000115509,
0.00888462,
0.00777924,
0.0154104,
0.0049156,
-0.00752162,
-0.0108964,
0.0038541,
0.017311,
0.0119973,
0.0013446,
-0.00412842,
-0.00620218,
0.00402334,
0.000655144,
0.00343531,
-0.00123062,
0.0117394,
-0.00960231,
-0.0147671,
-0.0129806,
0.00692185,
0.00885123,
0.0201547,
0.00636172,
-0.00696073,
-0.0169012,
-0.00808748,
-0.00107302,
0.0104522,
-0.00976224,
-0.0189951,
-0.0248532,
-0.0077564,
0.00106188,
-0.000826524,
0.00049483,
0.00356884,
0.000627179,
-0.00493242,
0.0019393,
0.00683905,
-0.00981498,
-0.0219695,
-0.0200775,
0.00459858,
0.0156466,
0.00853421,
0.0104471,
-0.0163219,
-0.0114127,
-0.00622129,
-0.0127243,
0.00969518,
0.0192844,
0.0108634,
0.0184146,
0.00439289,
-0.0164764,
-0.043223,
-0.0264903,
-0.0140173,
-0.00887863,
-0.0253146,
-0.0128343,
0.00606961,
-0.00258506,
-0.00853464,
-0.0129096,
-0.00826333,
-0.012232,
-0.0244888,
-0.0345116,
-0.00442931,
0.00912223,
-0.00145914,
0.00331609,
-0.00681007,
-0.000277771,
0.0140159,
0.0164933,
0.00845194,
0.0195092,
0.0228043,
0.0165598,
0.00870734,
0.00992962,
0.0121372,
0.0175976,
0.0161173,
0.00219604,
-0.00312685,
-0.00454245,
-0.0117583,
-0.0121496,
-0.0162326,
-0.0044232,
-0.0126439,
-0.0166169,
-0.0181183,
0.000657297,
-0.00899515,
0.0024487,
0.00376187,
-0.00958082,
0.00336914,
0.0131657,
0.00476564,
0.0105411,
0.029366,
0.0282343,
0.0234971,
0.0357126,
0.0297703,
0.0204019,
0.0415961,
0.0339667,
0.0263227,
0.0170487,
-0.0038863,
0.0170839,
0.0238057,
0.00834937,
0.0275148,
0.0308097,
0.0264842,
0.0294222,
0.00741527,
0.000266993,
0.00457235,
0.0250169,
0.03392,
0.0168702,
0.00314882,
0.00504474,
0.0163981,
0.0376837,
0.0282719,
0.0104836,
-0.00743912,
-0.0133705,
-0.0142803,
0.000663276,
0.0162378,
-0.00689077,
-0.0124162,
-0.0176631,
-0.031702,
-0.0241171,
-0.0190275,
-0.0204849,
-0.031731,
-0.036102,
-0.0195221,
-0.00820991,
-0.0173787,
-0.0242117,
-0.0188372,
-0.0167898,
-0.0054454,
-0.0195944,
-0.0182917,
-0.0018576,
0.0091599,
0.000362415,
-0.00122037,
-0.00432233,
0.00255117,
-0.000823267,
-0.011366,
-0.00301794,
0.00302622,
-0.00196764,
-0.00715285,
-0.00297768,
0.0021465,
0.00482458,
0.0128271,
0.00301538,
0.000636422,
0.0105468,
-0.00673811,
-0.00800944,
0.00365861,
0.00933249,
0.00512824,
-0.00118684,
0.00155259,
0.000561264,
4.55E-05,
0.00534403,
-0.00393491,
-0.0028719,
0.00286696,
-0.00355071,
-0.00691585,
-0.00933517,
-0.0150195,
-0.0108645,
-0.00286193,
-0.0041244,
-0.00688938,
-0.00566058,
-0.00724121,
-0.012124,
-0.00623818,
0.00344884,
0.00818846,
-0.0119349,
-0.0171236,
-0.00900877,
0.00511358,
0.00467668,
0.01669,
0.00148971,
-0.0129453,
-0.0169227,
-0.0191991,
-0.020116,
-0.00561197,
-0.0219868,
-0.0325222,
-0.020727,
-0.0422836,
-0.0622491,
-0.0552264,
-0.063783,
-0.0728728,
-0.0713301,
-0.0742016,
-0.0827741,
-0.0902389,
-0.0842799,
-0.0770122,
-0.0774709,
-0.0786647,
-0.0663147,
-0.0612532,
-0.0529127,
-0.0579074,
-0.0519049,
-0.0468172,
-0.0429011,
-0.0302147,
-0.0107888,
-0.00315841,
0.00780265,
0.0302623,
0.0547487,
0.0735686,
0.0867939,
0.098053,
0.123754,
0.168325,
0.209485,
0.222034,
0.235459,
0.259013,
0.266334,
0.27329,
0.270653,
0.234944,
0.192354,
0.168255,
0.183961,
0.205594,
0.25105,
0.259244,
0.229446,
0.158975,
0.0998415,
0.0501616,
0.0156542,
-0.0120441,
-0.031912,
-0.0466506,
-0.064462,
-0.127368,
-0.187086,
-0.233035,
-0.222264,
-0.205025,
-0.202434,
-0.201292,
-0.208294,
-0.206336,
-0.20873,
-0.217771,
-0.225225,
-0.230294,
-0.216631,
-0.199114,
-0.183873,
-0.167806,
-0.158643,
-0.131097,
-0.0883557,
-0.0677453,
-0.0637051,
-0.0531933,
-0.0419707,
-0.0116845,
0.0226826,
0.0440436,
0.0535971,
0.0588512,
0.0553362,
0.0529821,
0.0495782,
0.0403207,
0.0328622,
0.0450458,
0.0689796,
0.0744347,
0.0727671,
0.0683696,
0.0583482,
0.0559873,
0.0464097,
0.0393316,
0.028931,
0.0194155,
0.0230819,
0.0263319,
0.0139471,
-0.00760753,
0.0119865,
0.00734067,
-0.00602083,
-0.0104704,
-0.00116482,
0.014602,
0.012383,
0.00333327,
0.00734715,
0.00742306,
-0.00518672,
-0.00880571,
0.00319334,
0.00264562,
0.00249104,
0.00757882,
0.000426607,
0.004333,
0.0152483,
0.0215172,
0.0208709,
0.0103933,
-0.006682,
-0.00203799,
0.00377052,
-0.000101551,
0.0128827,
0.0187703,
0.0164256,
0.0111862,
-0.00115827,
-0.0102536,
0.00849515,
-0.00414355,
-0.0232511,
-0.0109625,
0.00634187,
0.0111822,
0.00873492,
-0.00618062,
-0.0144706,
-0.0120909,
-0.00794327,
-0.00235254,
-0.00923662,
-0.0128988,
-0.0181943,
-0.0183265,
-0.00455652,
0.00207832,
0.00983165,
0.0191895,
0.0144552,
0.000322537,
-0.0110709,
-0.0179443,
-0.0147949,
-0.00809541,
0.00830413,
0.0191922,
0.0240834,
0.01343,
0.0110202,
0.0105423,
-0.00645246,
-0.00177378,
-0.00665524,
-0.00653353,
-0.00351368,
-0.00261377,
-0.00771918,
-0.00944556,
-0.0150769,
-0.00551927,
0.00401369,
0.000412185,
0.00260815,
0.0016993,
-0.0102457,
-0.019635,
-0.01935,
-0.0127905,
0.00489666,
-0.00885028,
0.00729981,
0.00431222,
-0.000822226,
-0.00227859,
-0.00814891,
0.00373662,
0.00797081,
0.0006697,
0.00189992,
-0.00112257,
-0.0160031,
-0.02672,
-0.0264756,
-0.0183433,
0.00641708,
0.00168663,
0.00242199,
-0.00869005,
-0.0174062,
-0.020649,
-0.0116186,
-0.00730395,
0.000228021,
0.00175664,
0.00424412,
0.00898885,
-0.010545,
-0.00192139,
0.00427818,
0.0163109,
0.0102304,
0.00626899,
0.0120364,
0.012972,
0.00454844,
-0.00400654,
-0.00718726,
0.00132094,
0.0145628,
0.0110185,
-0.00477789,
0.000836704,
0.0120059,
0.0149771,
0.00586894,
0.0178583,
0.00466492,
-0.00490387,
-0.00097458,
-0.00523014,
-0.00245699,
0.00605194,
0.0131779,
0.0158477,
0.0187557,
0.0197996,
0.0110513,
0.012093,
0.0206606,
0.00616985,
0.00390047,
0.020165,
0.020172,
0.00570311,
0.0113908,
0.00940259,
-0.0143386,
-0.00869342,
0.00983414,
0.010823,
0.017741,
0.0195867,
0.0278533,
0.020374,
0.0156009,
-0.0121924,
-0.0181753,
-0.0146422,
0.00261921,
0.0230952,
0.0390232,
0.0222503,
0.0224627,
0.00988935,
0.014635,
0.0190655,
0.0259362,
0.0333096,
0.0243595,
0.0176992,
0.00621127,
0.00769876,
0.0229723,
0.0381156,
0.0477882,
0.0482674,
0.0392278,
0.0407334,
0.0260795,
0.0297308,
0.0262755,
0.0312431,
0.0197055,
0.0220788,
0.0153756,
0.0215956,
0.00965881,
-0.00668901,
0.00264197,
0.0212969,
0.0152818,
0.0187316,
0.00639064,
-0.0228842,
-0.0152147,
0.00624763,
0.0181901,
0.00442045,
-0.009987,
-0.00934365,
-0.0111349,
-0.00938093,
-0.0134748,
-0.0171121,
-0.00913296,
-0.00993365,
-0.0264783,
-0.0218756,
-0.0132843,
-0.0104189,
-0.00195621,
-0.000199764,
-0.000299407,
0.000329379,
0.00022535,
-0.011297,
-0.0161182,
-0.00728486,
-0.00988573,
0.00180407,
0.0263223,
0.00928905,
-0.0111105,
0.00201419,
-0.00830612,
-0.0326914,
-0.0187154,
-0.0273924,
-0.024744,
-0.0128784,
-0.0129992,
-0.00374876,
-0.0149061,
-0.0306142,
-0.0528163,
-0.0609607,
-0.072039,
-0.101909,
-0.10558,
-0.0299698,
0.0189284,
0.0217003,
-0.00352399,
0.00362303,
0.0164466,
-0.00372272,
-0.0149642,
-0.0421913,
-0.0339348,
-0.0125188,
-0.0103001,
-0.00218746,
0.00794363,
0.0205867,
0.028791,
0.0150869,
0.00715426,
0.0168135,
0.00830769,
-0.0122071,
-0.0110646,
-0.00201387,
-0.0119124,
-0.0159949,
-0.0163595,
-0.0134863,
-0.0149756,
-0.0159674,
-0.00965952,
-0.000416094,
0.00205857,
0.0241475,
0.027503,
-0.00340513,
0.00764861,
0.0064572,
0.0203742,
0.00231241,
0.00114792,
-0.00609489,
-0.00646645,
0.0147624,
0.0168135,
0.0145765,
0.0240732,
0.050482,
0.0450921,
0.00304687,
0.000564071,
0.013204,
0.0192772,
-0.00128889,
0.0121842,
0.014539,
0.00770877,
0.00333561,
0.00674963,
0.00806854,
0.011974,
0.0275165,
0.0187584,
0.00801982,
0.009853,
0.00595959,
0.0125107,
-0.00319383,
-0.0325877,
-0.0423442,
-0.0596593,
-0.0722419,
-0.0708749,
-0.0521656,
-0.0572227,
-0.044622,
-0.0185731,
0.00684392,
0.0358366,
0.0295676,
-0.0252307,
-0.0473181,
-0.0675997,
-0.104843,
-0.0556347,
-0.0146384,
-0.0082255,
-0.0017586,
0.00962378,
0.017028,
0.0641542,
0.0901622,
0.0974864,
0.0511787,
-0.0128286,
-0.056176,
-0.0403422,
-0.0389521,
-0.037273,
-0.0217052,
-0.0202384,
0.00451604,
0.00773857,
-0.00651835,
-0.00588241,
0.00625515,
-0.00553846,
-0.0215129,
-0.0424695,
-0.0355498,
-0.0123973,
0.0053108,
0.00253251,
0.0145537,
0.026979,
0.0335043,
0.0304139,
0.0169048,
0.0353807,
0.0428003,
0.0113329,
0.0316045,
0.0670437,
0.0669996,
0.0533185,
0.0211442,
-0.00816439,
-0.0200463,
-0.0115929,
0.00829036,
0.0187218,
0.025359,
0.0311078,
0.0286787,
0.0263173,
0.0120409,
-0.0148052,
-0.0362653,
-0.0332506,
-0.0117548,
-0.00722313,
-0.00477199,
-0.00133002,
-0.00256343,
0.00528204,
0.011526,
-0.0131208,
-0.0209167,
-0.0316006,
-0.0280138,
-0.0192124,
-0.0191065,
-0.0152276,
-0.00594907,
0.00970865,
0.0298124,
0.0446612,
0.0468189,
0.0322473,
0.00855837,
-0.0193881,
-0.00611558,
-0.00454008,
-0.0484843,
-0.0578469,
-0.00496108,
0.035239,
0.0588586,
0.11071,
0.162782,
0.154855,
0.155685,
0.116216,
0.0726714,
0.024702,
-0.0191428,
-0.0580816,
-0.110591,
-0.0658457,
-0.0222644,
-0.0371585,
-0.0828788,
-0.085815,
-0.0600639,
-0.0831554,
-0.0701418,
-0.095309,
-0.131635,
-0.126527,
-0.124157,
-0.152998,
-0.162387,
-0.139521,
-0.123867,
-0.0718691,
-0.0320508,
-0.0152257,
0.00436679,
0.0432641,
0.0817555,
0.10013,
0.100362,
0.0836144,
0.077266,
0.0868467,
0.0728964,
0.0778367,
0.0816213,
0.0619353,
0.0443613,
0.0175821,
0.011543,
0.0165383,
0.0343489,
0.0405367,
0.0250633,
0.0128423,
0.00240712,
0.00458816,
0.0251975,
0.00758057,
-0.0223861,
-0.020702,
0.00662859,
0.0238257,
0.0155001,
-0.0151266,
0.000870612,
0.0217283,
0.0181458,
0.0202148,
-0.019486,
-0.0338019,
-0.0452281,
-0.0468049,
-0.0398232,
-0.0462858,
-0.0346285,
-0.0325138,
-0.0423575,
-0.0626902,
-0.0593523,
-0.0407442,
-0.0280499,
-0.0146195,
0.0286906,
0.019524,
-0.0238203,
0.0106529,
0.0658273,
0.0939707,
0.118066,
0.138925,
0.12078,
0.147939,
0.173627,
0.115301,
0.0329851,
-0.034984,
-0.000914778,
0.0340303,
0.0410235,
0.0530536,
0.0531041,
0.0225395,
-0.0496697,
-0.0963902,
-0.0922392,
-0.112651,
-0.112659,
-0.115262,
-0.116269,
-0.101454,
-0.0857183,
-0.0863861,
-0.0824268,
-0.0544254,
-0.0650107,
-0.066443,
-0.0336362,
-0.013839,
0.0201423,
0.0162072,
0.0204856,
0.0274852,
0.0309054,
0.048234,
0.0472784,
0.036464,
-0.00102906,
0.0061745,
0.0234526,
0.0210373,
0.00233442,
-0.00271137,
-0.028725,
-0.0381571,
-0.0497746,
-0.0554814,
-0.0209658,
0.00684715,
-0.020586,
-0.0166826,
-0.0194663,
-0.0269886,
-0.0152919,
-0.00783266,
-0.000717637,
-0.0248452,
-0.0295518,
-0.0365091,
-0.0450559,
-0.0077615,
0.0541908,
0.0412945,
0.0189453,
-0.0249756,
-0.036885,
0.0233686,
0.0483504,
0.048435,
0.0409549,
0.0201004,
0.0143679,
0.0231233,
0.0491293,
0.0273411,
0.0619827,
0.0763537,
0.0575108,
0.0306995,
0.0501302,
0.0722669,
0.112962,
0.141297,
0.068257,
0.0341315,
0.017868,
0.0450183,
0.0571444,
0.0543887,
0.0338176,
0.01402,
0.00921514,
-0.00618749,
-0.0615003,
-0.0924992,
-0.0932175,
-0.0795342,
-0.054705,
-0.0418892,
-0.015535,
-0.00155011,
-0.00253809,
0.0133683,
0.026091,
0.000180162,
-0.0480283,
-0.0996077,
-0.107796,
-0.0551194,
-0.0179643,
0.0510832,
0.0868063,
0.0681683,
0.0469556,
0.0327193,
0.0183436,
-0.0251328,
-0.0433291,
-0.0637473,
-0.0766682,
-0.0552174,
-0.0171833,
-0.00155247,
-0.0312893,
-0.0492524,
-0.0423164,
-0.0271309,
-0.0117678,
-0.027116,
-0.0349638,
-0.0249333,
0.00299632,
0.0101688,
0.0111684,
0.0249479,
0.0193213,
0.0216535,
0.0118922,
0.0381121,
0.0860824,
